,record_name,Q1,R1,S1,ST_average_value1,ST-change1,T1,Q2,R2,S2,ST_average_value2,ST-change2,T2,Q3,R3,S3,ST_average_value3,ST-change3,T3,Q4,R4,S4,ST_average_value4,ST-change4,T4,Q5,R5,S5,ST_average_value5,ST-change5,T5,Q6,R6,S6,ST_average_value6,ST-change6,T6,Q7,R7,S7,ST_average_value7,ST-change7,T7,Q8,R8,S8,ST_average_value8,ST-change8,T8,Q9,R9,S9,ST_average_value9,ST-change9,T9,Q10,R10,S10,ST_average_value10,ST-change10,T10,Q11,R11,S11,ST_average_value11,ST-change11,T11,Q12,R12,S12,ST_average_value12,ST-change12,T12
0,00669_hr,-0.11851963268443816,0.9764870254481581,-0.07577135541956802,-0.042393120605595795,0.07737883968547567,0.1703308634982467,-0.08932565591462747,0.6242785251499791,-0.121594207770656,-0.03763840138839164,0.09748901308140623,0.13710697499938113,0.00023801521655026164,0.08351009798579961,-0.3653671461718743,0.0,0.0,0.020510027154669323,-0.7177560660206644,0.08487976360543285,-0.21105560564987647,0.0,0.0,0.08046804729094875,-0.09002577110773409,0.6671695910975265,-0.046480084069380014,-0.02607005628223852,0.04817381123415355,0.10200254840887248,-0.04156987829453504,0.1531534328320842,-0.1253580762606283,-0.014924890149449616,0.09344428781502064,0.052903610611342584,-0.015410465873495345,0.10779997922170441,-1.04253844847215,0.0,0.0,0.09742335406930792,-0.08794198696356526,0.12285024488667978,-0.5596858940846995,0.03462153943757564,0.5612292462644554,0.34596926662822064,-0.0955432908874061,0.3940484957018102,-0.3755145685533517,-0.0012000376941959203,0.3331070744043186,0.2796695354185262,-0.0973788153354229,1.1941212617613575,-0.23519194906713067,-0.056092305630629676,0.18435555841761642,0.2133029930865081,-0.10703651310246842,1.2506541491523202,-0.15286972370051313,-0.06356852963801078,0.11711294002960006,0.17146526475977902,-0.09840823481976227,1.0581221253363564,-0.08958479508560312,-0.049355919526585974,0.07814044309530219,0.12167602350107136
1,00209_hr,-0.055645213532672023,0.20628734996072778,-0.22859632893003484,-0.009820956058733598,0.1951955389763859,0.06357782205282861,-0.10727126980720485,0.5788361479545574,-0.06820302025441034,-0.018106086441959487,0.023948416317704047,0.08425575620525791,-0.07593236746275803,0.4794611534504161,-0.044523986530781504,-0.03311266172416934,0.027628752465044225,0.015364148100794936,-0.3997550417405411,0.11857545255735552,-0.06431284703454096,0.0027393778708062885,0.0017066501713260745,0.008952847801204776,-0.0075300537859327886,0.047821911011332534,-0.293480645037178,-0.003699097862307647,0.24369445219589164,0.04492802554827629,-0.0845957666424589,0.5129420142707783,-0.032660554636950515,-0.03374111212482989,0.011218760530703314,0.05682455255378745,-0.020457444121372192,0.07904567325426691,-0.4229048517232532,0.0,0.0,0.04489873872827315,-0.08778526576060036,0.14945441979582855,-1.2386558771806364,-0.02844709498338576,1.2553882217362113,0.5058088739369925,-0.08303067637165884,0.33063999593178794,-0.6728117024477008,0.05481903462135521,0.6657828468387534,0.35621614532561174,0.0,1.5517008040016318,-0.29636011480375446,-0.006512694430370533,0.2003822692445556,0.07717925211012931,-0.0915497503895502,1.2707349339647014,-0.19949833690199703,-0.02128543304607844,0.1222425889741426,0.038148620543694986,-0.09631743149831432,0.7864337665936627,-0.1267763979116536,-0.01647657685742168,0.10219615922831976,0.1563748565800757
2,00777_hr,-0.07172958494903448,0.42623808580845723,-0.07231493036659355,-0.020294817542587985,0.107786315026743,0.171889266874845,-0.06317913593948685,0.6586526444465761,-0.09008707742162832,-0.05180163197225309,0.09038391351936205,0.1414151825332915,-0.021992637959363587,0.24763036854798023,-0.0427853882306495,-0.02760903077645443,0.00037523605898676354,-0.016029215864156884,-0.18079459877255494,0.09412214060081876,-0.4485099391425041,-0.01284546595272481,0.29803274300181437,0.074688588949869,-0.042083274372154235,0.11034828509949647,-0.0358499614998665,-0.0012040626059197307,0.06066540954844145,0.07600917008835768,-0.031423944511483747,0.44911187554279386,-0.061781820272596336,-0.06023407099324724,0.0358715708480544,0.006734590644230196,0.00395337623808343,0.09583803242010697,-0.6598360438219883,-0.04299128475485574,0.6160454562688267,0.06402572643670108,-0.059253117106445694,0.1642459928927404,-1.0962730247729984,-0.036426604557693004,1.0505534189704222,0.33080792410670007,-0.08704690579961319,0.2990181531556813,-0.34903083198841867,-0.026482984860957615,0.31570386101433145,0.1860839088812443,-0.08286255051589149,0.8370200982125088,-0.24669325511747883,-0.05016874377188681,0.23304013462148912,0.21355002984164467,-0.12599508035911974,1.219098867000407,-0.14461071455111854,-0.06735128380655739,0.14640962657146447,0.2309663500665818,-0.10950555755712812,0.9997467770262954,-0.09755415102044794,-0.05845991115265344,0.09514323476243286,0.19719379055921174
3,01394_hr,-0.04821967527675652,0.5410082053303565,-0.08218131610982209,-0.04903783707982469,0.01458327340238317,-0.04869738522742095,-0.034299567367857296,0.7251743891656097,-0.2375141760365142,0.0,0.0,-0.05257164998118835,0.005019669832367389,0.19873361621044258,-0.06157994657980417,-0.006865181141307811,0.012990713964107996,0.021492769083674635,-0.14493395126088332,0.04547372373108411,-0.5226503522079693,0.02889461778110527,0.47853747721611445,0.1350745454241972,-0.03564724811672495,0.18706951147492656,-0.0432292208048164,-0.017051400421704152,0.041345577642495024,0.042360560740184704,-0.012440658288024205,0.4578013726635652,-0.16902923122354035,0.0,0.0,-0.0158334596271606,-0.06891603547829957,0.04041999126571413,-0.7450969896241291,-0.0335002648790426,0.7514190229032877,0.31094189583573595,-0.0937343836732764,0.364443067118074,-1.0461891816243747,-0.05856261794457447,0.947154129881436,0.5899094415687376,-0.09359197441905803,0.3945919639827293,-1.0621762778311785,-0.05862745082020136,0.9539744685853281,0.5857824988677879,-0.079261695214282,1.0569858532944683,-0.5804962947577915,-0.09559789552501491,0.41523164967530846,0.18551331663448253,-0.03700720676299544,1.214007181597334,-0.2880917690516892,0.0,0.0,-0.07120170966805152,-0.0370754957155883,0.9322071942429949,-0.2556409520513506,0.0,0.0,-0.06004491558062073
4,01618_hr,-0.07818186324663805,0.507890336501185,-0.08881971702134349,-0.03156446916934205,0.08485466612769224,0.1491757745502384,-0.13045028502649741,0.6794070185729123,-0.20048556682368296,-0.07481184670291224,0.19725758744645336,0.28244832367920975,-0.06317244043039624,0.1760333245379414,-0.12681171058659846,-0.03299551018082536,0.13754281299881718,0.12495264195355392,-0.583585561905375,0.14544285119787642,-0.21562386737477748,0.0,0.0,0.0,-0.026194505560047775,0.16215091060994247,-0.016249212430943575,0.08232393642893458,0.048711667734634555,0.008826820555404001,-0.0954795097630671,0.4266003074532443,-0.15934266833239405,-0.05946232863866001,0.15383257881664217,0.2085176372218582,-0.02164590890758511,0.09991627108713041,-0.7554835706246081,0.0,0.0,0.09198886739978092,-0.06247531262174382,0.07524266282473623,-0.7600255057502032,-0.01845603145551455,0.6521741775395611,0.24902921795644073,-0.15677144144475638,0.5563165582844277,-0.3852211968021612,-0.06381428501354124,0.3381332321300689,0.5502766588426018,-0.20449337872371917,1.649533977620156,-0.3197616515961275,-0.12912105982563157,0.29205350111825684,0.5680301171665193,-0.15466564807326763,1.484300320161683,-0.24725066994900355,-0.11139542551981343,0.2237359752823063,0.3945650866245975,-0.11405149481093355,1.0112886687447002,-0.15821314763653405,-0.07750337134724745,0.1448029565650807,0.26646439646554704
5,01630_hr,-0.10770301057131557,0.3056424109335231,-0.05580891795988989,-0.0021517605771448852,0.11422643248744592,0.25887311150695,-0.057779972213260485,0.18219997456357614,-0.14802300546659802,-0.0026020204693957675,0.13411283329420381,0.14755502717215055,0.027063492370781136,0.06872196161533828,-0.20083830902356706,0.0,0.0,0.02070893811079031,-0.22960935081561554,0.10251716189828981,-0.20139003060528896,-0.17733134575077267,0.00666972722475935,0.0460084855118173,-0.08132775236958661,0.23879755448530607,-0.027582501054312546,0.006283656933886087,0.07786819700264593,0.1868452882427839,-0.0050432233942436155,0.0814235449990105,-0.13891063253519018,-0.00781805666569471,0.10577932792825905,0.023569858873512397,-0.06268109506540384,0.039896067059682884,-0.43381293441262514,0.030584472394697068,0.3843446556447411,0.15850901170850765,-0.11541107893780414,0.0486062153441581,-0.6086074892904908,0.03512117855940515,0.5916024595311582,0.5539901136857843,-0.17097827173615202,0.33941566608343404,-0.4052062109245513,0.02673219064870853,0.4205901352787562,0.6584364312295125,-0.15474777740288428,0.7679890008458451,-0.24966779946618453,8.765179251849068e-05,0.26827151491005474,0.5135865740210942,-0.12140196581482869,0.7437916038887352,-0.16992078207246483,-0.010022695535112173,0.1846344911473043,0.3784076854182628,-0.08492213913235805,0.49528488393838316,-0.10501250681541774,-0.010278145214435767,0.11419479185571607,0.22683248672745457
6,01651_hr,-0.05575878046449889,0.21176048779657966,-0.1388260364444118,-0.018108170208605605,0.11822297414177647,0.1881649043761181,-0.11733874928573013,0.6481412740799494,-0.09648883215399602,-0.06486502243868375,0.09209168295163161,0.2091076056479347,-0.09665203591354993,0.4655460377136804,-0.09447261490078317,-0.08101755584003094,0.05220817333274869,0.016642284412817374,-0.41614311082343447,0.11386031440202354,-0.18645366315813777,-0.019445811662121698,0.24455907506414684,0.0498010770365963,-0.033777554976289204,0.05451281325346679,-0.1599620356336042,-0.005171484995904684,0.19349328299470567,0.09243633788939976,-0.10317637015006288,0.554097426587385,-0.08260777022050492,-0.05961398767515735,0.05839450067521661,0.12345798573883278,-0.01571855963676892,0.11802070154437598,-0.5614307117515132,0.0,0.0,0.05826625015100539,-0.017699990046938955,0.21136028864972534,-1.3985202647276465,-0.03416055134658597,1.2433960808086895,0.34000861887462164,-0.06978599931761936,0.09005423981247461,-0.7789478526923006,-0.03551397995595386,0.6856880320098955,0.3492107691890272,-0.1456688181700363,1.1677480135328013,-0.3112668984104144,-0.09284644589694292,0.25113164723068143,0.5061490945036258,-0.15202271580521046,1.2106839411420285,-0.2120757032891601,-0.09142033836653597,0.18093329088607024,0.3789090435299813,-0.1456324639047387,1.0070034977493607,-0.11515866191497355,-0.07721805693236285,0.10426621076758691,0.2716437152599834
7,03310_hr,-0.08810350435516741,0.3668077521200977,-0.11606296332480727,-0.07339650601807532,0.05824575918953555,0.004392059887878641,-0.06633663419859082,0.06862603431325727,-0.07972291579278369,-0.03958639047336849,0.03765451530910503,0.03581973785819515,-0.07513195789927032,0.033803921610702295,-0.3489646506772822,-0.02454458766352215,0.30347738094977633,0.08545489816069388,-0.04010348813403322,0.07476793586668044,-0.1876384325958133,-0.02761835180534955,0.17360501889463392,0.08159703292202626,-0.05987700348506107,0.3761683492661004,-0.09400785194080992,-0.06242823361198064,0.02998628640336728,-0.03175177718355483,-0.09970405631195885,0.00034987116172806624,-0.17140552983512503,-0.03480362308523658,0.11213105937022926,0.02946530312301208,-0.027567072795045673,0.08163046313995387,-0.7479904014244827,-0.011301175253264748,0.7091383523385505,0.15210109192959098,-0.05527510296748908,0.07941186670293457,-1.3226395441581993,0.0,0.0,0.0,-0.08431029139367623,0.1572165338838531,-1.0547170586316654,0.0,0.0,0.0,-0.08464069946785724,0.18268070929549024,-0.7920599057975789,-0.1173811967667781,0.5666635581139303,0.32094823118293997,-0.07152788232060851,0.18361765103148614,-0.2879631287636489,-0.053739630711450145,0.21408280377183037,0.024484159349426587,-0.06585455449040321,0.17595835028893617,-0.06677579284233134,-0.03268041359158694,0.06530562785571914,0.04943933987629201
8,02229_hr,-0.08490455909590637,0.4482276250408274,-0.09590804950318542,-0.059282364308952284,0.08936786073360709,0.1933424653217235,-0.07978861580457262,0.6110747742098965,-0.11923251630678504,-0.07883214545386939,0.09429116338689375,0.20070945317973363,-0.015298603042559582,0.18212755328441949,-0.20779468318065458,-0.04966389810040733,0.10188542535675614,0.0012778107776758307,-0.01141122257164963,0.08118593314841133,-0.524603146276301,-0.033396170543226196,0.4483362966486284,0.10056766615827151,-0.04603450337547703,0.22410345463334885,-0.04761493622784043,-0.021815570557524214,0.05607566181333734,0.04751526077809577,-0.043643752238989385,0.39270248517101713,-0.14610935675244105,-0.04956356149799091,0.08868613180121011,0.07762438845048002,-0.086921519530997,0.14101160484925787,-0.6188879909331687,0.007657624125330717,0.45722190482955066,0.09422186636997555,-0.12513972443780227,0.2790696918252872,-0.6660497156165675,-0.042481829228831064,0.5259131457576853,0.5322550020845163,-0.1631588183999097,0.414724301698448,-0.599636739983927,-0.08171562511463369,0.5462862068069305,0.7409347658376271,-0.19899722035562858,0.999372803304583,-0.2040650301050591,-0.1319347029404475,0.23484340458240302,0.8281712197583628,-0.26316319581867226,2.072343143957849,-0.2698237082806829,-0.2046756233405529,0.24194324855771787,0.7515864692834437,-0.1893236482064793,1.5391687836259558,-0.19688057170866033,-0.15277469994107842,0.1532306544635549,0.4477641180801534
9,02462_hr,-0.036586353223467344,0.10445369112913436,-0.09893222780112482,-0.007717128793005731,0.09530635779979478,0.12770938403493987,-0.09725312012415087,0.6604440285958454,-0.22535099421908633,-0.11325765801439826,0.15716735292791367,0.20180209065419402,-0.07681045156918215,0.6037023935716883,-0.17191378720559206,-0.10641187745884387,0.08601894529329727,0.09722950774969676,-0.3684230916248334,0.14654846322750564,-0.16351247919157727,0.0,0.0,0.0,-0.13322903486564522,0.04570404592611537,-0.16119046540438606,0.04327415356063833,0.03721759435515255,0.06158291683716038,-0.08494576318691016,0.6289070878851575,-0.19671886361382904,-0.10923230274581096,0.12162106380357923,0.14653072892160984,-0.00769364409913822,0.09875897380343146,-0.5912029116911754,-0.04140066638881508,0.49201019636853377,0.05161053335779559,-0.030917748405026518,0.22172538140506748,-1.3193339146555727,-0.02533528284914791,1.1156716558342965,0.4126530244438355,-0.07813125918331373,0.8976772745678006,-0.2998352565525597,-0.10480119592503018,0.18940427282850922,0.22826744374088276,-0.07391438192037879,0.843686548948302,-0.23237465562335735,-0.10024711526935731,0.1570269256954425,0.20739045171038134,-0.0755977751066635,0.7165759013463482,-0.15845232625670216,-0.09126723011986425,0.10623692953142744,0.1718861392359455,-0.07279883694419655,0.5859028140692362,-0.11097802509016695,-0.07376806752295219,0.07682082997475075,0.143374593324056
10,03563_hr,-0.08110945221313866,0.6853299868378594,-0.1748905360488255,-0.048582843267614945,0.13744938135624923,0.019875567037164144,-0.08329224103095532,0.38811641525533896,-0.09795941948462855,-0.05681246665944314,0.10534398821474943,0.04131437342449082,-0.3274074831220629,0.29105357890501266,-0.043387901771015674,-0.025773119925688863,0.026425118880366718,0.008298503575100704,-0.3229467215850668,0.08611223888703964,-0.2511825221180411,-0.011167935171469679,0.21806068242569357,0.08759869098859656,-0.03533081090110366,0.4989578853067019,-0.23244669749389543,-0.0439351312969273,0.1683410249230012,0.022007281175448215,-0.044604216606897,0.2153532294288327,-0.06296071306635245,-0.03932522982171163,0.04003846639402955,0.02243414585466306,-0.022659457970522053,0.04876700207905803,-0.6412414141771747,0.024367150132599172,0.5842564948784397,0.10241361839776092,-0.06565618529596327,0.012402068010747029,-0.8459400192799044,-0.0025755862391264824,0.8199054012709839,0.31661717758925234,-0.08034554516832496,0.2805184353394216,-0.3978670179659896,-0.033684570624425016,0.31061199951960994,0.192096846247346,-0.08958113514850395,0.7368792715166229,-0.3293728350649816,-0.056695099570742855,0.24642880292962294,0.16053116260862327,-0.08852342370782643,0.9489643728427574,-0.23490447736568162,-0.0769684791426547,0.15797757441295315,0.1160794766976329,-0.06984189020217478,0.6745643239906614,-0.08559129103211635,-0.05655723082150174,0.05605887723717645,0.006030598496298682
11,03583_hr,-0.08041132315396675,0.5648338156507846,-0.0756268955039621,-0.026599142068086723,0.09074760887437819,0.07321537911442813,-0.052649542640883576,0.20745950325011828,-0.06809432229877681,-0.022056908016458907,0.043308812245728544,0.00984073011019938,-0.028661032373602218,0.06864933305202212,-0.37644456663134496,-0.047010150900094916,0.2881172163571843,0.05244748541861399,-0.17874965296755024,0.05393844577757407,-0.23356286598981318,-0.020754462616199242,0.07725942713864069,0.04333403272764743,-0.07239063292606294,0.4681380345100487,-0.06403306068907426,-0.028535364124341784,0.0746011683743392,0.029964773888339884,-0.027086841119731746,0.04270788856502794,-0.10815821340945801,-0.026606684661859302,0.08398116498436362,0.027274005627607293,-0.03938942017096594,0.1108940754281495,-0.46238049830068045,0.0,0.0,0.041439668557936474,-0.07121997670343255,0.6913689207080073,-0.4563356185093868,-0.02397526759704514,0.3211097125021619,0.17727515910969263,-0.06396841512657317,0.7542462225878627,-0.30005416812323993,-0.011146407580017599,0.21915196088191463,0.0448748060624391,-0.056657196696469056,0.6207500112910291,-0.19391387609573002,-0.010811135186418087,0.1610237140733564,0.05012227974839536,-0.04798306838362067,0.4227371865364088,-0.05693211150095695,-0.019083388519622636,0.05029783253139545,0.045381882853671854,-0.04019555219129023,0.3022899677534628,-0.03430226252312011,-0.010908452716750365,0.042977142473399586,0.021059749926635098
12,03885_hr,-0.05541244840135224,0.43201505801721324,-0.09977943243029005,-0.06558426225114088,0.023869709107671756,-0.0196460350534601,-0.11531655744211894,0.6767094735559507,-0.11341751296262322,-0.0705325289860118,0.08680535303335642,-0.013631827998458301,-0.15313366712962084,0.3465498969981034,-0.07283966633707356,-0.05632112845969098,0.029905776905024346,-0.021369444594685854,-0.23473881418784937,0.07110507231687914,-0.2579725922355794,0.05519267499640202,0.054642851893770585,0.07781742330773479,-0.01413895125755173,0.1838529623360162,-0.12554989798016003,-0.022680669021835218,0.06863693149369664,0.02326552385363489,-0.12555091710125957,0.4949667611822065,-0.08854825702317658,-0.08089365974226824,0.018026964264626123,-0.05402764318899222,-0.0020972712221787016,0.1075181341696999,-0.5067618243249513,-0.013942819033037492,0.41869805696379847,0.05927064588665703,-0.01532568432336157,0.2454298610164545,-0.5647098732945991,-0.027484769957972426,0.44727054113661335,0.04644116460255303,-0.0383516385650267,0.48883843476295413,-0.35816170909935335,-0.060210811233010246,0.1811536383491934,-0.009900622685523094,-0.0717042092057426,0.6103454551577376,-0.18379557823961643,-0.06943269184080025,0.08205475144627301,-0.03401095165778582,-0.07972900996684738,0.7050890852464475,-0.12422740432154838,-0.07815071135847701,0.029189516368889834,-0.04666679324350854,-0.08761757483891369,0.6516566273065926,-0.08298254555528778,-0.053203402062551156,0.04954376374097878,-0.00029697803005373943
13,03980_hr,-0.10092922215225324,0.22403745416986243,-0.4408185479864449,-0.03766886637523898,0.4601606221992552,0.22411214214326522,-0.13777428839876954,0.19647352889120032,-0.3467655257040179,-0.03696125718509265,0.38284580338848073,0.272951706944403,-0.0360809845716048,0.21252473263387792,-0.046436804550618764,-0.01732555136900915,0.04837175355479915,0.03349671887625412,-0.21914522906359526,0.37592644311930534,-0.25006496399336725,-0.2425267256363992,0.015899529759849984,0.046622450083163694,-0.04879290876685556,0.12773497575936157,-0.31337121517299976,-0.004344053844015797,0.2996505653366162,0.0898122041189786,-0.09044239488587648,0.09596323078311476,-0.16789643986789085,-0.023753050322368734,0.17984467522048805,0.16216731878429572,-0.13302538688834217,0.47707550889960093,-0.23882908921758383,0.0,0.0,0.024071922348161794,-0.10948866860506833,0.17218307154955384,-0.17017147137589417,-0.09979151829445693,0.02378844428219598,0.12765044420688773,-0.07790253936214636,0.1462277040098192,-0.5173262434889431,-0.04456588515079574,0.5193219018067667,0.24002590175225216,-0.10667808221774795,0.1618978228367031,-0.391257039792645,-0.036606887078854324,0.42437603278928343,0.22083718500478167,-0.0992920048738079,0.24605085935528567,-0.396689359976153,-0.03058904371201159,0.4304857816078089,0.22956170724265254,-0.10258031453246545,0.271836067394766,-0.3549042398802113,-0.03400418015975148,0.3829619253357053,0.23072712151682864
14,04183_hr,-0.057603894232058174,0.4621687477350412,-0.08835329133455991,-0.05017989569588848,0.0349505123384794,0.005355126040608603,-0.06252091957296206,0.3460399349585553,-0.12359618728382434,-0.06242388704285644,0.07534857767608925,0.19581718560748,-0.0669339252510333,-0.006739258351365434,-0.07051821752933975,-0.011317802195893694,0.026390514509335227,0.054951542420521755,-0.2767664540003535,0.08060242063314971,-0.0850715001446163,0.03364198338839782,0.009660022429012467,0.06912149646638287,-0.03296971490846997,0.24995188440511595,-0.04528165832666798,-0.02068814279353876,-0.009393047259931413,-5.740425528716142e-05,-0.04090504904412751,0.11963922571995113,-0.10908426801011428,-0.04309345403094602,0.06805499631997576,0.07538209130515115,-0.31765790749973566,0.06650382334453141,-0.3046563771243852,0.019244434171970602,0.2764124900630261,0.07874430646408767,-0.10474004759429438,0.022766053254874786,-0.5648032664528363,0.038829521683450774,0.41016903896842405,0.11977840988308759,-0.08852930599206098,0.00938984540108423,-0.7953890532707715,0.0029321180872054348,0.6822544133432011,0.4010423830381088,-0.08215886292827142,1.0586318161953825,-0.37018006484998434,-0.0806375242801334,0.2462934538930382,0.3361380096595916,-0.06078332632555172,0.7992498109308556,-0.13825385035476262,-0.07683502073773779,0.08387367114255702,0.20272208259088015,-0.0583186794706319,0.6591029503539677,-0.08893012526952959,-0.062570208361505,0.06046060393988382,0.16609650801891873
15,04261_hr,-0.06722110833609159,0.7030774148711121,-0.05994316209324332,-0.028755016482570443,0.06838169911850711,0.15692815457495488,-0.0792395122646452,0.5725511263058798,-0.0659827607121685,-0.02361174436140263,0.07856169114281777,0.13356565281646848,-0.020725281565178274,0.023822214821577984,-0.11806890421475587,-0.025848683961333992,0.10399819950583201,0.020087515567455628,-0.26379433188680074,0.07151381065111505,-0.4637034981098378,-0.11535145422721328,0.1854367410032788,0.05375532489624932,-0.031280191247189934,0.4175391271453284,-0.03803172886527427,-0.013034978516428538,0.044591880820176656,0.09007040439796545,-0.05070799996454031,0.22258667298395313,-0.047058448363823155,-0.007492344573248728,0.046062403816946325,0.05201269162670228,-0.021893113514235958,0.06696736655187527,-0.4762223765048348,-0.003392826795398917,0.4359524140937918,0.09486797560757808,-0.1444686960880067,0.8530324599106777,-0.4933774364094953,0.008215470982716364,0.5083492727836382,0.6127832146716485,-0.0958125551500701,0.5771397581220477,-0.32713212349378334,-0.003933227348542404,0.3191934408816482,0.3304598779215214,-0.0953240763556451,0.8269143908010499,-0.2190606602397685,-0.020520522709150772,0.2095136406167881,0.2659796312783038,-0.08671999950980767,0.8836245976824552,-0.13061535371500746,-0.025168270088735727,0.1407898084702028,0.19888911540089807,-0.07598891973252196,0.8298088306743785,-0.07202150928453738,-0.02495336565867933,0.09070590643147947,0.1515046510542556
16,04377_hr,-0.48590284474331846,0.31126238979218274,-0.1188890791454181,-0.025009545170426334,0.043109945336723576,0.04466523757560843,-0.05087474413786627,0.17276889491891367,-1.1536798837310698,-0.006628853112352605,1.3252752231800478,0.34470868879255995,-0.05584245414010869,0.6758358464030888,-1.3688425010700085,-0.04936931827379752,1.5143778004020543,0.367240232243891,0.006327131241379463,0.4785926306564472,-0.14940797715206464,-0.031440483314954325,0.061572395539571056,-0.02639352189785903,-0.6084659840875187,0.8146564117985343,-0.20329539178813485,-0.09369783225525002,0.1910966127024133,-0.07225754283215634,-0.03278966537011141,0.4160625408686283,-1.2551137056064219,-0.044732455143849284,1.4149492928890361,0.3281391330732777,-0.02545796776742594,0.21586964005946743,-0.22206489804975782,-0.053368779591142945,0.19017478452029182,0.014746196605177076,-0.1291631302915781,-0.06463309352656302,-0.4889429429274481,-0.045428125195765424,0.47293939707372,0.23263526492033498,-0.020746728158199723,0.2875041430297205,-1.4055727677194116,-0.12394441926260932,1.5329975458140872,0.4118843275713994,-0.0511570616626734,0.2543743109046549,-1.3930794611060813,-0.08646425418417683,1.642326295069632,0.508054148976488,-0.047738363529055534,0.20315458894117758,-1.2891623377293475,-0.04909962019005881,1.5319761829574372,0.48306375976052246,-0.03141354127751654,0.24166195078819266,-0.9210383055058086,-0.020804036930842523,1.0994237482074105,0.2929526787618733
17,04469_hr,-0.08162767328801375,0.3870655750273256,-0.07397745401763901,-0.00736338806692201,0.10881570127722269,0.19334266369955044,-0.2304984972289029,2.0224003224019445,-0.2070856134436879,-0.13113740654938297,0.2018224121530829,0.5183788160444577,-0.19151932058023916,1.670472554623455,-0.17114882726777364,-0.12103748022152039,0.1261889798931077,0.33101278489134117,0.03669307827575885,0.14499314814008618,-1.1947671725188904,0.0,0.0,0.13990945386802864,0.020262945142896994,0.09038983877745808,-0.6628746618316954,-0.06185377841292844,0.4686447790733657,0.07364588378699229,-0.20938224620761564,1.8447554986721157,-0.18494196794316117,-0.12188905022212608,0.16307449492636372,0.4242945114966529,0.03134156533723347,0.21459144776600012,-2.121557870271415,-0.03635202971280068,1.7274396134312024,0.1727281312812149,-0.07840898861577339,0.31082609121094645,-3.180150688103997,-0.046203555458162245,2.7024947453654615,0.8132613372155841,-0.18507403735964992,0.5974760762026459,-0.19910988596273033,-0.05044358719774441,0.2540229298617145,0.6804823534430944,0.0,2.3986669291898037,-0.23432131306930123,-0.15211741027358944,0.2485847856686946,0.6541752887607778,-0.2137159144884306,2.065953571278681,-0.20023625533414657,-0.12942098632138438,0.20722675060777487,0.5257977747954805,-0.19640742464629746,1.6301139721345412,-0.14664009790237859,-0.10429803944997684,0.12088995444418238,0.37427162978529815
18,05285_hr,-0.1563567044212392,1.0331300639559513,-0.11783956496845828,-0.06581380411480962,0.13479900046508086,0.3777991682493838,-0.13856087754679416,0.8153830561231302,-0.10879956703617312,-0.06649221306361547,0.09683523951952755,0.2813553090588671,-0.3429745700334747,0.10883156474514037,-0.07752696123941137,-0.0651904442948005,0.06603949387541491,0.007617048848631344,-0.0733391295686069,0.1284128599721495,-0.8814939176480272,-0.007142095435597317,0.7952574143796429,0.12076582579369273,-0.09259843643728342,0.6542708760327006,-0.07421383541151477,-0.030935634635222288,0.08938358087660274,0.23812826498589887,-0.0904412082922586,0.33722712026409624,-0.05941486927493036,-0.03609781623068203,0.04329439940256912,0.09583571826823874,-0.05918786229706128,0.13801683516223184,-0.7665921582819183,0.0038483325218947617,0.6434916697333665,0.08432644903372223,-0.08921644839723226,0.22158211146488374,-0.7817727477360993,0.012293991839368973,0.7259577701802018,0.4942077799380846,-0.12802571031230858,0.24893953791976883,-0.3653222930947738,-0.007421664722681475,0.4281747955901525,0.6753559390091652,-0.17520554054958132,0.6391558673427898,-0.1250994690401078,-0.028613224819996032,0.24937999414918874,0.777651483762594,-0.19249447022947644,1.1867379732802485,-0.12010269138656558,-0.052566292895476825,0.2295649210414534,0.74329632425568,-0.15935636736623954,1.4303684293265917,-0.12089404596325705,-0.08210495302846482,0.12160775223308012,0.40111697472934793
19,05659_hr,-0.09168518827666791,0.654941949658239,-0.32704988756760167,-0.057032318521644775,0.28596507549096156,0.2524659523351351,-0.09907638921772084,0.40045587306553826,-0.24260990196698698,-0.042340100652659,0.23404359503563263,0.2853254078342368,-0.06661460949668814,0.07825914417612266,-0.1994553356918155,-0.009189564896002153,0.0008510003061406781,0.06259174082045135,-0.5435343912056418,0.2599127242663709,-0.2686332393209722,-0.06402706607992277,0.29460965819664053,0.047663824250517926,-0.07769672894737564,0.40282151990544346,-0.20779578059335507,-0.039758745959794874,0.16723166891824193,0.10252005073362432,-0.06587135683385013,0.10482522102121498,-0.08403356643430827,-0.013436438818249337,0.08997030552252927,0.1610304405916078,-0.15175721401473197,0.07827560777577845,-0.35498692155137884,-0.02155738675469978,-0.025238279962042132,0.05707864775918999,-0.11048542385853853,0.19281888710389458,-1.8631663602457023,-0.08709048215137133,1.7543637556497822,0.7834435206729737,-0.1564758389472933,0.26541660973778347,-0.7157477303763092,-0.04119389763868925,0.7062122466176823,0.6839381926810533,-0.15270095680371937,1.1599824450847798,-0.3338197596409388,-0.08795662443793034,0.28329138829559475,0.4395862947476146,-0.10671768807482204,1.0571375728694554,-0.2156983652797891,-0.08042219422409544,0.1826231782831951,0.3053643679867888,-0.08336007514332783,0.8317206515838976,-0.15872384882197102,-0.05761308017178661,0.14456941674969842,0.24849203246282262
20,06131_hr,-0.06241513445643854,0.09038947060456066,-0.13987804631061657,-0.015260400806511606,0.12989137130585296,0.16809525947014317,-0.16052241220500407,0.5931546200661094,-0.2845044184357806,-0.10298092988059458,0.21532787599836128,0.2753953782195472,-0.12348811655497663,0.5594683163134408,-0.1795179979055496,-0.08661079033394135,0.10709638074468343,0.1253076140890886,-0.3319678686286802,0.20373872679753324,-0.22449786063739782,0.0,0.0,0.05895921005586311,-0.04407189439703971,0.05027402659648604,-0.2607545213185862,0.04867722516759185,0.12091706955711301,0.05409501900824634,-0.1406603047805347,0.5742411218123695,-0.22906888179352392,-0.09513220497747092,0.15991470380243275,0.19557553819308576,-0.06466414650169758,0.27893347417649733,-0.3692787120511473,0.0,0.0,0.050489167973270126,-0.0781836985942602,0.5288331179992712,-1.2848297442081775,-0.05294638898580143,1.1434744780361459,0.42210113318770176,-0.1825681650128883,0.4950739548869034,-1.3402054069219858,-0.07396213788815527,1.1855966740316342,0.8157662621369431,-0.18872835375176622,0.8579026741764035,-0.5725056213952727,-0.09578397769159892,0.4361838097997108,0.5922069195784981,-0.14821512528236983,0.7190228312436205,-0.24407089945124805,-0.07815853989430115,0.19310175029884832,0.3419032893683613,-0.12181021240748273,0.5659724310380716,-0.11275580884936572,-0.06142565331916738,0.10894754988326355,0.22899449415035716
21,06711_hr,-0.0688000371124836,0.23487152453113821,-0.08237128882823658,-0.027085994835941322,0.0956693938423888,0.1309908617675861,-0.1251448137069622,0.42669122441543844,-0.25142621431366424,-0.01195019922872607,0.19683282733622728,0.10108448141645615,-0.04420642384992822,0.29350151445039124,-0.16166064071353034,0.011284837509883771,0.1165259421229191,0.03029916590426138,-0.3171956851097501,0.1678144676579968,-0.12103579136473579,-0.09009371048403536,0.0064173749281424206,0.012642350963498295,-0.04722717098203722,0.0581445803441194,-0.01050429520364362,-0.002169496377491256,0.013937498389801711,0.056741591997559716,-0.0781126752205552,0.3453497453189288,-0.2040148793866434,0.0027792423002436575,0.14588705204423177,0.03545801914917062,-0.03641969379651393,0.12441144368642838,-0.4494842803952258,0.0,0.0,0.08316748248141627,-0.09802140800030695,0.2377751258205926,-0.7722743619863277,-0.007145094097602234,0.7172449010861951,0.31335887888145914,-0.1369524200561685,0.6036997955397291,-0.8789168348468731,-0.009058460940852857,0.8132633623890025,0.40998692945827386,-0.13076546001109499,0.971441952575292,-0.5435095603556176,-0.02345351821079368,0.4722780737274533,0.28985316436918335,-0.10698314854478469,1.005327522755321,-0.32754603107262714,-0.02964391711772121,0.2871520457051639,0.22389401775010243,-0.1066573642058336,0.8782429701682437,-0.18612049525521487,-0.03015533760705107,0.16853187156120691,0.1834324931572411
22,07566_hr,-0.05601891608180557,0.20718172993765155,-0.2734625505758096,-0.02838690423368793,0.23457535039045385,0.2285776820348191,-0.11819771943544986,0.7649956851362982,-0.12744977080495876,-0.045201192126586964,0.13297798088676466,0.19452880501948444,-0.08808800268179172,0.697432541729174,-0.06177248842670496,0.0,0.0,-0.023734114387385027,-0.46631918704657366,0.18630313958675793,-0.21051752517530922,-0.0431850775401455,0.26354402214762956,0.08427891972209763,-0.007109224481844151,0.060460440411933145,-0.3890091945183041,-0.01685538015247748,0.31268599238924416,0.12223972451926013,-0.10090598930643953,0.7184444819639898,-0.06112692763910441,-0.033156229410371336,0.05578210287864394,0.08573258102054389,-0.014178176992413223,0.09665070878935415,-0.4072828514107992,-0.007190230239877881,0.2909677420280961,0.03633703293303394,-0.09206480882006945,0.23542137818270292,-1.902870364318927,-0.0591796589840016,1.6234125047751082,0.671876082022572,-0.09741118688723387,0.45254470955748344,-0.3125246487169124,-0.03411462916222501,0.24090629076769107,0.26774601964260986,-0.09782590971995501,0.7465500093041917,-0.16238491680971842,-0.040011333220163856,0.1355984301480958,0.19463909228751988,-0.09303933051407585,0.7367815936779732,-0.11588189457348895,-0.03813114244940894,0.09700545720844089,0.15621276769700349,-0.09180587073647366,0.6885821822408331,-0.09628845360843451,-0.036792221938199546,0.08001431445739628,0.13725347460915222
23,07719_hr,-0.09958404254478619,0.5745071566620256,-0.08658177156904993,-0.05084438987328497,0.05394927018480418,0.05872584316733192,-0.10721116013254176,0.3987525658512812,-0.0888844480361301,-0.040837491664268366,0.07404099139827452,0.055426136140754374,-0.1336078325909743,0.03786567652208255,-0.1218018981671168,-0.01638812607439558,0.05596324242643275,0.014954134076840655,-0.12280581412597226,0.09568686008153902,-0.41384085592254355,0.0,0.0,0.07506217376036442,-0.055973794806303136,0.3829114233923916,-0.047763579255574125,-0.026676043065979364,0.022984949989134723,0.02574863612508282,-0.10405527752369885,0.16041697300601468,-0.04743209006781834,-0.015212844750505649,0.0463288271840852,0.021419473187451295,-0.08563519726336578,0.10056330819723293,-0.5317304524009917,-0.02740334209235205,0.5018420864293673,0.18637593583115755,-0.14831284660516206,0.43061388113223187,-0.36137985053060756,-0.05212316242962193,0.3519012953323161,0.509819484471185,-0.1850137034794434,1.7431906759082194,-0.23024452639240334,-0.1270381246999895,0.17986914940447585,0.3896399136477834,-0.2229748485585398,2.2995385846380874,-0.17762341913075888,-0.1446450624715188,0.08752689026566883,0.1518642420216147,-0.15872032572610628,1.2595216312569215,-0.10606159465729975,-0.08271011989476713,0.05124015035474076,0.05921109930770871,-0.10933219125559764,0.7696024167003143,-0.06935543701487717,-0.04954593436641067,0.03561178764983182,0.015858840578640968
24,07726_hr,-0.07509993199695322,0.4969670712440779,-0.049900233285230855,-0.024809878938578427,0.044528127593489134,0.06012152446858952,-0.05669690937125364,0.1291374470269265,-0.29612358493332513,-0.03305855302298391,0.2319103085754765,0.10915292529249719,-0.0021846865553621416,0.09302514247170936,-0.6075331544301817,-0.028080504499578204,0.5088779706683345,0.047521340017545245,-0.2731348636741947,0.07973509095626015,-0.05280997626720341,-0.052537482237773325,0.050596411320238135,0.031957057511090695,-0.08147850178406658,0.524744816543837,-0.03557416608836947,-0.026833401023296642,0.01161414784330499,0.005345222318462424,-0.027671231856240774,0.06133725186748789,-0.42858859392902265,-0.03186719420206427,0.3340336138612141,0.07419350904090756,-0.050807452817154805,0.1359589143702195,-0.5966938344143765,-0.03228561845279065,0.4914284882818194,0.055016156538150264,-0.0646387580576219,0.24742775703219486,-0.6698683576761837,-0.03880451578485484,0.5673661025484461,0.20500969359911228,-0.0701691684949362,0.2994378644525127,-0.8413497260777654,-0.048824190136651464,0.7028952613218487,0.25972979794612716,-0.08242494083137439,0.5776471523003528,-0.5697462380058194,-0.04944578256948896,0.44733994565401103,0.23642046779675382,-0.07163117783249086,0.7168169148648369,-0.21210632258792056,-0.04995637951707849,0.1522102250440659,0.12880942098000053,-0.05977025657797659,0.5244075126561183,-0.07060392608771653,-0.031128273746691637,0.06492713543597414,0.08176301481765753
25,07900_hr,-0.09792844122105097,0.7907440760203955,-0.07867031247706055,-0.04705526693657426,0.08549198181184854,0.1793739774950946,-0.08599043847402726,0.3352491170525856,-0.08747935140215816,-0.03527626752037983,0.10753218519613517,0.23017252287123008,-0.0013745073504414155,0.015385759830332467,-0.456595730903707,-0.02201925049626227,0.4151938567346675,0.07009458867223575,-0.02115493417005999,0.09114166885696112,-0.5623037116832099,0.0,0.0,0.06963785332778287,-0.056161502635800394,0.6232414222750218,-0.0523175585879488,-0.036554166835373124,0.038967996396555876,0.05811506830192487,-0.09197587827462401,-0.05918240177896461,-0.12377021800898771,-0.015415956333619566,0.1328545974352524,0.1418026185874097,-0.049648696633440056,0.08459117054827175,-0.6923821326152892,0.0033986156158483903,0.6535689847966013,0.21846048578103752,-0.14211694499666488,0.5964232527835062,-0.7591931663045826,-0.014664123462610168,0.7697869580068954,0.7363626716542577,-0.1290114093572005,0.9938281471244569,-0.6479734122327765,-0.04692406205808773,0.6409774087980354,0.7545767404964284,0.0,1.4833633397512846,-0.5432996959989668,-0.07765311850898882,0.5316727753384481,0.7527462515538249,-0.24443880977415922,1.93678715879758,-0.5896192680506925,-0.12928969148236033,0.4628931239541348,0.6161999489379244,-0.1676506850467801,1.3703304986016036,-0.1693285783030138,-0.0981208153139999,0.18587165454797774,0.4045815073574088
26,08067_hr,-0.12114146839059771,0.6985357162112659,-0.0925262850239828,-0.05063783062789857,0.08021411371250785,0.1428541488617421,-0.0939668677552894,0.5018347640814286,-0.08265082573569543,-0.04795056598752796,0.08794139401272356,0.17638110129099216,-0.015173632596735764,0.05382856661530777,-0.2599603277800951,-0.04228149088929336,0.2141400516351822,0.02353491630845913,-0.009609916926232658,0.09535875342274908,-0.6456446636367942,-0.015791134178649302,0.5462149295392091,0.08535313605908967,-0.082241101902593,0.4575269183620536,-0.05542263494289281,-0.029818522610651745,0.039488070310192205,0.017825070321726744,-0.04977422457220388,0.17188203324385823,-0.05366928789809497,-0.025591354705224487,0.04982117994121662,0.09010283531927615,-0.04159926539724814,0.1401413591725815,-0.5949467862380488,-0.011588076527495553,0.48443004939261175,0.0701145938663872,-0.062313259801803446,0.3049992429230562,-0.6530555520330545,-0.019564268614768794,0.5324003182660152,0.2090706117731896,-0.05509670890592371,0.3843872966592547,-0.33640106119101093,-0.03310765665977088,0.25571973654864427,0.13008166693100318,-0.06283445478272277,0.5635339619669958,-0.16989565486836145,-0.039954133522196116,0.13432502901874788,0.1286278616174365,-0.07446965879313751,0.5630864055019628,-0.07415612583510771,-0.039457697538176045,0.07687768487913695,0.15246623933430123,-0.07171460103508488,0.5166838541456714,-0.06266321941119378,-0.03525319929869727,0.06685338536347157,0.13881974957409302
27,08145_hr,-0.044268742592851004,0.6452583827284717,-0.08145709910406332,-0.04024182862679002,0.07298183903671776,0.10389692509822611,-0.06993475383015497,0.3806053735429082,-0.10931616395530301,-0.07886824180252493,0.08331879398830763,0.16087896083055508,-0.28289212325285457,0.021708279029780116,-0.054224466468874334,-0.03874315779566858,0.036601165929421725,0.05799133711413052,-0.15155905000434677,0.06492487360363212,-0.4272695029890647,0.0,0.0,0.0822771354373058,-0.03451380753697779,0.4633046482289828,-0.04679094003176375,-0.008892957554341562,0.03926392076015476,0.017155761438110033,-0.03051364948880213,0.10199064502850023,-0.06324874271973586,-0.04761342429724919,0.03199063596938145,0.0904524703629627,-0.04356546604876006,0.06929704122352098,-0.5771505550425962,0.0,0.0,0.07537155286692859,-0.03335033736655989,0.09796179232941758,-0.5217594885952725,-0.005772831826519324,0.4827893468615764,0.08884840036501282,-0.041015064751148064,0.17730481969590284,-0.40932412909748317,-0.023169835580456967,0.38413570898411253,0.16208712771279174,-0.05896555225031881,0.5567571186558926,-0.23374059450456647,-0.06262113659637962,0.20799231136186408,0.1859180464561467,-0.08619263418260839,1.2692656379711738,-0.17556978220084538,-0.10273283871373706,0.1559863486458967,0.19599029329796114,-0.0851036158955353,1.2826210793846058,-0.14337907694126148,-0.10181480040389146,0.10662858858834412,0.15142037800643598
28,08368_hr,-0.08343376278950625,0.686488497593844,-0.08342226821759365,-0.039855288004218295,0.1034761815032862,0.227118266441447,-0.09091842602270037,0.44392654181667907,-0.04072777302445751,-0.022407828405185782,0.03831934288325778,0.1323873523230969,-0.10079298576230859,0.03871405136145697,-0.2488109082679718,-0.029160552098819063,0.11354294422034815,0.050217078628594966,-0.04432106280867749,0.047882261349806124,-0.5789507991084332,-0.03224031370558248,0.5194404021556029,0.05520608715047976,-0.05532635141234623,0.4643801756901822,-0.06609679657589757,-0.02905313175836056,0.08428515483966602,0.16050894412498837,-0.0707523934821868,0.10234279138237384,-0.018595094268706817,-0.007802515156857785,0.01989596388331174,0.014693333375518425,0.006294883383865581,0.04577217950768493,-0.5868925992202462,0.0,0.0,0.08112578926957621,-0.06750310557290391,0.21876271199774458,-1.1738976922185447,0.019931017256917486,0.9865999992853355,0.23782041248231067,-0.0944137275376865,0.6127789573244001,-1.075622385889245,0.002348454284659309,0.8466180819398529,0.30498220687666866,-0.059591658015400596,1.1820010357083992,-0.6843513901940484,-0.0334066700203805,0.44239080643008005,0.2537302130099833,0.0,1.6559023376133766,-0.41087280142106347,-0.0677076180422043,0.28523055980824724,0.22091834687029585,0.0,1.091105983095756,-0.08504650199447632,-0.06016107936559273,0.05825703466911937,0.10058126338832214
29,08483_hr,-0.09776547673240912,0.695235208249087,-0.13574238200228397,-0.04637466060432138,0.13178686808490606,0.22932400394686242,-0.09719818855755225,0.6653251488474051,-0.2216168953770093,-0.03423086092904237,0.2138115456853479,0.2065108380292613,-0.1520329384236792,0.14028716923432427,-0.09167238436598843,0.0,0.0,0.020787578588264542,-0.7355787050184912,0.15780736495260336,-0.21709426599533574,-0.1512844176473498,0.06901165740342863,0.04983096455347158,-0.05755469235118225,0.38330279393818467,-0.07119623440078791,-0.024590651657338043,0.033919396633345644,0.10306944224361808,-0.057121181495389785,0.3485577739429803,-0.15607272067871417,-0.012802601782928759,0.1415692340992322,0.08504761106176414,-0.7090542196823411,0.2590015393308072,-0.12773815418466458,-0.03263612433675175,0.11507869191403484,0.02757140826656364,-0.011644151044770183,0.31126328638151163,-0.6966484860149096,0.0,0.0,0.21275840325839543,-0.06596797877010326,0.3160971868081223,-0.5530692263725385,-0.0030119693153317965,0.5199987401469077,0.29905138656694924,-0.10664115918036952,0.7852056869855055,-0.25791477128360596,-0.04471155942538469,0.2816421327479213,0.3263356140362836,-0.10761951651706797,0.8228413215480628,-0.252050596201884,-0.04724093913873121,0.2686126295491743,0.3122153815320429,-0.12214196236792907,0.8709894894876329,-0.14689224290773328,-0.044295037562273494,0.14953942782141777,0.22868222204957508
30,08771_hr,-0.03320379567679727,0.12680308757616834,-0.03533078732009863,-0.0058165762706676736,0.01773516258393693,0.0363666605765604,-0.18360764495282778,0.8029663892451591,-0.07411152906171846,-0.01609012419426007,0.11821813286547607,0.40176124193028,-0.1694938977209272,0.6726554121023367,-0.05783513361479531,-0.017887214707765546,0.06657196439726819,0.27697213734259046,0.057702096866369915,0.10577595972455026,-0.4671316178809468,-0.05176284412188473,0.33784359680678183,0.05004309948798076,0.019061431351012317,0.07363426771396561,-0.24277074995978085,-0.021621663277682106,0.1997599900049571,0.029844781336917748,-0.17285829582457982,0.7366533263630662,-0.06160113252154455,-0.018166326368190114,0.08857504719893158,0.33894695227961696,-0.013218273265404758,0.199314397215217,-0.7689650902351465,-0.06447847359778602,0.7028387953755676,0.09599440633731539,-0.15216406954680117,0.29158018812113967,-1.4761526435373606,-0.02036703778780874,1.4215123630548607,0.9333147306329815,-0.20990634822365872,0.689079047548559,-0.6490260518986166,-0.0024720965060085085,0.6529798738775789,0.9661537798695315,-0.2616661657542419,1.2036446776622844,-0.2951113840677654,-0.03220099845644344,0.37715743104524985,0.9009781208472774,-0.19359104250548675,1.1056429831039225,-0.166836530048665,-0.03193426401927653,0.24539753584507126,0.5821645464970994,-0.16841351340465466,0.8230840957085883,-0.07533146132093495,-0.022255779768414995,0.12677927862548583,0.3905018993234241
31,09251_hr,-0.055471296585289015,0.44103274467279613,-0.08066917076953321,-0.06416805214014408,0.0068655025276018675,-0.038878426296767944,-0.053973763858789485,0.2469842836926699,-0.10508512708604009,-0.06006713734290936,0.07089713891042186,0.0017944567287943877,-0.03884386156175484,0.009107090915548673,-0.25263342607857897,-0.0213411013914378,0.27760562615980033,0.05182741830473251,-0.2580633953290093,0.06418140877669815,-0.1194946437653239,0.020415328448489582,0.17150462147217638,0.07315429421405184,-0.031837927170345164,0.33232875510429727,-0.05939463071267521,-0.028666932342484307,0.0035528594149983675,-0.016821560758718806,-0.029489630948713506,0.05466683842273631,-0.12347165848913734,-0.03136473252827426,0.08773088406394987,0.04195607840209945,-0.0384198624974616,0.03475271395472163,-0.8549773692787078,0.014402744480320648,0.7068316576595735,0.14390443731366068,-0.033927147535985525,-0.01490022506054694,-0.7269181527850638,-0.059642600781472856,0.6811759705186226,0.2884277542887234,-0.09381844077486061,0.012998860957854566,-0.2179576020732849,-0.07020192502658475,0.148649769512984,0.22666625197519116,-0.06466701406735587,0.7739749800479397,-0.11720792825473193,-0.07129025854217264,0.08181290424489887,0.1029304283704313,-0.05458145517894533,0.766206841911798,-0.0943308645619894,-0.07095138777843511,0.054442481285300555,0.04814342551893695,-0.036678747859118906,0.49657467187363236,-0.05963425780529175,-0.053251325944311256,0.01973245589857724,-0.010336321771741548
32,09310_hr,-0.04451007052368877,0.3400190188209585,-0.09298198017129453,-0.0124087497820491,0.08180844584492278,0.07938086065414955,-0.06750778820955489,0.45286832408306094,-0.03844425563959054,-0.01425741358542484,0.053756706136627565,0.11599897390699863,-0.06019498730693425,0.17352980299995432,-0.0200883204167527,-0.013263592908903558,0.017555922948018273,0.03451579008228159,-0.3494017211807581,0.06295950673532112,-0.13207761398621803,0.000758195110375516,0.13788170072782166,0.048528383330091504,-0.017779037729055418,0.14013082341274893,-0.0897969843762983,-0.005600926118629758,0.07910152563868304,0.02246521701570739,-0.054838405202133865,0.2971609413758144,-0.021820814426957536,-0.009988712996776138,0.032198497319367206,0.07773535982680428,-0.008521252501441307,0.049528907379539786,-0.686970679985136,0.0,0.0,0.03926560485898979,-0.06586107198899756,0.19256671921023596,-0.6922704141406221,0.009038137973797308,0.5354102694971461,0.22176610031266428,-0.053455723049665324,0.5468215409914804,-0.27516552373192954,-0.0207373440450719,0.18077889305223127,0.11416225873594993,-0.05772285243836502,0.6257367749565154,-0.1451894137073429,-0.02816815813272116,0.09461153126132782,0.11126449856211512,-0.058726246847669125,0.5337298859003164,-0.06543914580293088,-0.02580620155426716,0.06308919262422572,0.1056346663492358,-0.05979177637859019,0.4180589968110372,-0.03295006457709766,-0.01634757412104806,0.03730345083748958,0.08545182263719511
33,09824_hr,-0.041006880095433206,0.38202494776459456,-0.03749453142247505,-0.018442590510086534,0.04237608717514989,0.14649196467453118,-0.12934940940990367,0.8990006546626506,-0.08777662567474344,-0.050870634340129464,0.09975379758358895,0.3452910386095513,-0.08881153556382351,0.5258656090621664,-0.060155427624744115,-0.0323769815622849,0.06153271530636659,0.2040680057901725,-0.054363419848551024,0.08029120924710534,-0.5635187336046009,-0.007982720307042595,0.47126093041684436,0.05817906123837946,0.003514522958890063,0.025060498752985647,-0.11392202983601926,-0.010371420172390025,0.0925779847981831,0.01876915822377336,-0.10880340896978231,0.7104558461458016,-0.07212018503432409,-0.04135381540729671,0.07909381331444187,0.2742816481159724,-0.050487467711534326,0.2358326913904437,-0.4948193591570674,-0.011939396674433509,0.43166077779064466,0.06465968495752399,-0.07996391535196133,0.3096484188199867,-0.42905411888112693,0.0073288957631501665,0.3742414942058335,0.1510722650641868,-0.08129636316157339,0.5091285535000192,-0.14314994223254934,0.006357581149156647,0.08439139103682747,0.094314993088949,-0.07716264311803939,0.9792178713758027,-0.062339019917792955,-0.018498327654928516,0.006333392029141749,0.06663587784253402,-0.12686759083060772,0.9873703210297075,-0.07333463911055228,-0.0452751513325885,0.08080370795364714,0.28762265887225436,-0.12946235642830506,0.8980622837061216,-0.06063939176572079,-0.0380722552160379,0.08224228716550547,0.30442775428801333
34,10241_hr,-0.04579134094986452,0.577392362696593,-0.06786197347854454,-0.036520352935732574,0.05507076367876986,0.07885428359232946,-0.07663457276777152,0.6134784381678784,-0.07293018296017169,-0.048674430824386834,0.07864762983304512,0.22126612365957318,-0.02441181152700017,0.09966739247371428,-0.03095706519631204,-0.026368813229116116,0.01336733995895736,0.016797348276741786,-0.030155984254933772,0.058948910311327776,-0.5952457282937356,-0.021932208520205814,0.5032515155350601,0.06752356988353503,-0.009580512482282852,0.22411543491476102,-0.030221984662827807,-0.015198803642416553,0.006763035103629918,0.002611445486385355,-0.05719017800327475,0.26597159268267734,-0.04240405391377615,-0.026987552724414957,0.05002107331108938,0.09142960989130121,-0.06770897276099373,0.09254274460672587,-0.7489859801553165,0.02490384801680676,0.7199736786839491,0.18904075233012047,-0.07309088968803189,0.18962246564282248,-1.3640413599432257,0.006696696620476961,1.3376892026361686,0.6583432632060173,-0.09832143172412577,0.3656077883556652,-0.7524063442343969,0.023979190374974896,0.7976861502472137,0.6902074812608994,-0.08381236355260312,0.7427298161659722,-0.6028638909085011,-0.039205507674856935,0.5069729494593883,0.5267125260907732,-0.08162719730001917,1.1532568488137915,-0.312979402642495,-0.07197556434527806,0.2482256082729706,0.33535562290089094,-0.08533306536459992,1.116389290834515,-0.10237565135593471,-0.07712738007412759,0.08990865773031693,0.214449060802184
35,10612_hr,-0.12959187538666891,0.6552585078357467,-0.09721821388634533,-0.055056413860490094,0.08087240588402071,0.186210516591991,-0.08574428929564605,0.3555266501573702,-0.14664420656645558,-0.055811203743092175,0.11411838699731727,0.10678670568908213,0.03930813507492502,0.043777749338517725,-0.30903889468280715,-0.06421591325580239,0.20533722715328104,0.02952290215069913,-0.2887871587526846,0.10377837944301006,-0.2975157908834694,-0.011058504749487325,0.4485040066958002,0.09810331447090473,-0.09550641779358844,0.47740886026360996,-0.06032486502709694,-0.03236781860501853,0.053034607737024335,0.13356410136680408,-0.027904180861210735,0.028973050312476847,-0.12964310813695332,-0.028615617864501876,0.09086801151621016,0.0015698081324034756,-0.0037532555909116777,0.10307118199156612,-0.7217305821108533,0.01484034314769232,0.6012115289706436,0.0747987111790856,-0.11474476042004361,0.1800695083826585,-0.9642205927842407,-0.037147575766843806,0.8223564707287245,0.48348809658159103,-0.13194431906298146,0.3088474591390025,-0.833253832371946,-0.06203843570267784,0.7074982628844898,0.45622502166282963,-0.11226828348183052,0.540994157283649,-0.457275323468196,-0.07234988957606224,0.3464871166673817,0.229351922625402,-0.09784127743256159,0.6670260004652401,-0.2208011501672822,-0.0753863065827686,0.15289262671474468,0.15806476255142177,-0.08496484727449655,0.5868429098460698,-0.10095097029366107,-0.060343637802045866,0.06461614501738262,0.09114444902847257
36,10821_hr,-0.0674886950303615,0.6957843513388979,-0.08575782287006325,-0.05735643098373909,0.06340052745457724,0.15623301430386996,-0.10231651252433281,0.615181593993203,-0.09090106327472094,-0.06148728049033568,0.0714791706527606,0.19091947070213433,-0.25910249903297955,0.32138586142573045,-0.01397830180522174,-0.0012831616848360853,0.021679539597040227,0.03416209401578171,-0.03920057586991485,0.08156693089780229,-0.6177233545472005,0.0,0.0,0.08822888850417734,-0.02171323175982581,0.45348399206128154,-0.13474670424900803,-0.03988611230890088,0.07926875494741112,0.025203168745928355,-0.0713843739655702,0.4130688602458189,-0.05050076492525864,-0.03407406318485017,0.03981815302877418,0.11340563750280766,-0.026521383298864467,0.029934004595787933,-0.6361907655613585,0.0007224959832438137,0.6011857724451686,0.0874343160220061,-0.053387614015969566,0.04867273313870376,-0.8723290560603093,-0.012293985297875005,0.7982259232866266,0.29510044027413673,-0.09218084992219386,0.182540122884092,-0.475379930925295,-0.03027744569513387,0.43451791082619395,0.32299584167889867,-0.09652259654920636,0.5525234033925586,-0.23611560172586682,-0.05729072662359716,0.2148568252040317,0.3280726345374675,-0.08557772666628939,0.7628236161253055,-0.0855204125599636,-0.058611853275851375,0.07458196193407421,0.22861199310199845,-0.08208718087664037,0.7450285334436392,-0.08283974080489093,-0.05873029534033648,0.06497633156198655,0.17938336784103223
37,12125_hr,-0.04617325194472147,0.9051002955602719,-0.10858132458273093,-0.0916146231786903,0.03409663823952913,0.009024415402213427,-0.01860262491123455,0.8243045717168134,-0.12269275202799765,-0.11199888709728531,0.01992340709263373,-0.003322566873450819,-0.0005018134884244834,0.09648798110863956,-0.1728839626457188,-0.02056151119619882,0.07139149984514166,0.000206775776632615,-0.018555948501511058,0.02830986718560277,-0.9424071875378497,0.01743521275343036,0.8264788308332012,0.10083792027861165,-0.04163809375871259,0.5098658049258303,-0.05150642978446661,-0.03678961772681457,0.03089629963974635,0.02639277198808715,-0.002601947037107627,0.39499056203104776,-0.07420780058372309,-0.07374407974175046,0.008249890971226737,-0.03116956232743041,-0.0642888524581741,0.07361674432947538,-0.9409482857598611,-0.002002319993121298,0.8659655157965405,0.2974565529835729,-0.12236647704535888,0.29559549332188023,-0.2769054946235313,-0.030987080568888985,0.25683802120560456,0.361239780498628,-0.09158922149000781,0.9075441056630733,-0.12945157108935063,-0.07587771188345978,0.06276404280619498,0.1296179756173151,-0.06872234656568034,1.1162351648160633,-0.11665019736812794,-0.1005397985357843,0.03933300090167158,-0.007830588923614724,-0.053152407780523825,1.2815306591650368,-0.12866833360193378,-0.10780282445801549,0.042019286981219185,-0.03576283758148594,-0.01813337419812495,0.9323133922404415,-0.1261381859563058,-0.11640155425322533,0.0138798886583511,-0.02488975439497419
38,12150_hr,-0.06280636781606568,0.8363695552902111,-0.24971021547574856,-0.17557073428455877,0.10509495274533345,0.02242197685611952,-0.04738671648092525,0.46223364977643766,-0.11688881953541429,-0.06428586192999608,0.02054424708725637,-0.05369043326266821,-0.004110487029265363,0.05766800335337432,-0.72247316693959,-0.017739208178928868,0.7149323386860892,0.18529563733161236,0.020428895739139988,0.03837532064302567,-0.593085908065911,-0.02144531405780177,0.5895714997496869,0.15868748863825446,-0.04904683284789603,0.7397678388659652,-0.21449405405567304,-0.13621122809024666,0.109943452090917,0.00621711719912326,-0.02351004768767504,0.19594566740092198,-0.3914042487089842,-0.01594060237983345,0.34952501425616583,0.07298639087532954,-0.16642548130325993,0.05962321691132661,-0.9902658979096238,-0.15023471159662102,1.221708364581279,0.27093267968634743,0.0,0.0,0.0,0.0,0.0,0.0,0.014964230636932014,0.012814269983977888,-1.520141489069698,-0.19858130926780604,1.5230544401265398,0.3568158625629686,-0.012282764378392687,1.4476115041831719,-0.6691456333580516,-0.1734583824853027,0.28980587424919513,0.01813971268089448,0.09203054440431219,1.2583889822018555,-0.3955160895112406,0.0,0.0,-0.044848714117607213,-0.0847078728096184,0.884751056251214,-0.18741651828400074,-0.12208176484806638,0.11144226802643878,-0.05191690232658199
39,12592_hr,-0.07652943707108249,0.5653005480108403,-0.12232444697753625,-0.05110043321704026,0.10717289201303878,0.11278544605526161,-0.05356016178469284,0.2616588085178218,-0.10625008060562663,-0.0472891643350933,0.08653336160187905,0.08463917735502619,-0.02113766094207891,0.07169071295495404,-0.3519155857799588,-0.04021717445252098,0.13840805873608167,0.017043483992934583,-0.4289139260813288,0.11332962711405722,-0.09942338653046834,-0.08597497590838193,0.005586098561328218,0.035572014602989185,-0.06908966925328006,0.45107216043407034,-0.07160840073375489,-0.02470392509990392,0.07307300953324082,0.06835620433401632,-0.025668590004959184,0.06025804752619235,-0.08078489539520703,-0.02878276031855927,0.03824459807893148,0.017122906955526696,-0.04766466627132811,0.04514987286762302,-0.5061055341633494,0.0,0.0,0.05683957235714112,-0.15038883329939096,0.5273755806507714,-0.9116710488925387,-0.0890083427767926,0.7813255906687627,0.44213647950848556,-0.10383538715097552,0.7331045870903238,-0.6565838019320126,-0.09450345116272751,0.5403241578000602,0.25912322321865766,-0.09394752070797888,0.8911097216933678,-0.44104057927504575,-0.0974257851764661,0.34529989777405484,0.2104419356147102,-0.06276949492290407,0.7527502877570742,-0.24702075443702742,-0.08384592809293928,0.19370490209282087,0.13936230550837514,-0.061896681898470876,0.5678233276948483,-0.12060134431174689,-0.058893511046799074,0.09277291737232125,0.10559544871433493
40,12759_hr,-0.10162815194378069,0.785261863209463,-0.04998127674999294,-0.0027311575531836726,0.12138741443120572,0.32810296481666323,-0.041200900320727894,0.12790157007778816,-0.17873506823771798,0.002445295794643313,0.18254872316219806,0.15942021867406483,0.02053337053439454,0.09809814575117524,-0.7490052057924387,0.0,0.0,0.03991103526139424,-0.5198000104184669,0.08851642878659813,-0.24354621096218354,-0.21125101991844777,0.027643007502709982,0.060342698061871716,-0.0991555758008936,0.7225087838785551,-0.039570540715203426,-0.006601734210490936,0.09089361573369555,0.2490680665663283,-0.0050556178385588275,0.04909384253549006,-0.30802709432176845,-0.009281519264637788,0.29607152102086215,0.027691867651420444,-0.03844328970905926,0.07398675306075099,-0.5497036212566542,0.017928576380081985,0.6079333659868313,0.05789993408432507,-0.15137775159795058,0.5901311009949379,-0.6109431841601238,0.0,0.0,0.0,-0.12762703263779923,0.6124352203639142,-0.6376525358747157,0.025993023132814607,0.6109865764630175,0.6623377174190704,-0.10605892484514834,0.9708903337574182,-0.4175835955782304,0.009609354484164861,0.37405679750643545,0.5369973972179228,-0.0874475173197547,0.8495446264756469,-0.31805785815856197,-0.0005773205215979898,0.29318833029423313,0.40301459012754304,-0.06028906108913468,0.6517598463985811,-0.16990722756158994,0.001927885015293998,0.1740039686548811,0.2692580713240823
41,12808_hr,-0.1015708734179129,0.4213198807508156,-0.13057829318761166,-0.033280901315421836,0.08271706407604705,0.005781907091008846,-0.04778617908816001,0.425230449655874,-0.16530630060614152,-0.038494429329254,0.07117925641534242,-0.014536341669922709,-0.01336413338235395,0.2034154212699126,-0.22617246176299083,0.0,0.0,0.02991348201754617,-0.355265968427939,0.1904499087558185,-0.09603527348653063,0.0162058409891063,0.011984711387181522,0.0394479288075674,-0.08660367001150185,0.2727939705099885,-0.1386463382713478,-0.009709882943474584,0.133379501122325,0.038369876425769465,-0.027397787316302588,0.2502068027524765,-0.13620331080585996,-0.029313011860462545,0.05048373486668087,-0.009409825442783643,-0.0344980019804664,0.2817047332087633,-0.5843291637183572,-0.00024245850401441373,0.4180914146252842,0.04672692191827462,-0.10832970106679721,0.3698334922600531,-0.9174232070763806,-0.03685713417365126,0.7254653489559598,0.35498530314278703,-0.06431358999177422,0.36349726371225066,-0.5076826758291937,-0.04345236324904336,0.5417758003977273,0.2815646804597793,-0.09098364434706308,1.0314596980844264,-0.6529085311543643,-0.14482791147313692,0.6885689540867352,0.14366779916487118,-0.11704537364497702,1.2543112410494108,-0.2958727954630561,-0.056772477274917535,0.054467608118671296,-0.02872241740407592,-0.12483554983868422,0.8475633507229063,-0.19983860237861623,-0.045138102990299425,0.03716261029710142,-0.018812710720875158
42,13056_hr,-0.06562332100571301,0.4318855596515678,-0.3041048561201409,-0.03506020788508665,0.2562733838003726,0.19452204662343045,-0.11722197297794779,0.44243888654310215,-0.26633054703551173,-0.04589092309340493,0.24228416361281668,0.22419129967606433,-0.20960817646080915,0.22853296498557038,-0.04977002572911175,-0.02357564121237988,0.009730566056949441,0.00473824241196619,-0.4210941836714465,0.27562174733978,-0.21230969053491758,-0.19407842923343568,0.011854318721846072,0.043843051079406864,-0.03095769246616783,0.27081412370860986,-0.21622895488087537,-0.010080637192308502,0.173301773380181,0.0816347178176305,-0.12973344304759202,0.28281764916530383,-0.14345404358535926,-0.0284916491269391,0.12955203331459875,0.1320774697690372,-0.02275430612320749,0.10377369836769386,-0.42013451385939504,-0.003531880556395982,0.4156382854250129,0.08903928709335736,-0.1041583552750095,0.3488811608532732,-1.437391043711637,-0.06086996778955784,1.4260679309293744,0.7385469064448763,-0.1329476797294967,0.6012250964052906,-1.2589951944756352,-0.06190739356064235,1.1729139152614574,0.7074292242447794,-0.16320446934563615,1.4220358174742997,-0.8997665798735223,-0.08908440106089294,0.7376820854760345,0.4786481423747133,-0.12439627025679505,1.340308885114332,-0.5058476381323149,-0.08000695708405543,0.3907973660801703,0.2441204912484404,-0.09262233399202933,0.8537483184177357,-0.25778258163234546,-0.05717965029495476,0.2035849921320766,0.16857498146810346
43,13523_hr,-0.044368609928532636,0.20821879788190856,-0.16508731423872683,-0.00921903772595371,0.1600902900083141,0.18020157954801744,-0.15543860433096818,0.7748640909388933,-0.19315641198505193,-0.10465084863939421,0.13478238803411668,0.21406423741122527,-0.12730038346368225,0.6068181152328126,-0.11874842127615283,-0.09747174918561298,0.05201356604185609,0.03852914738829042,-0.4845548754113678,0.1632654172737235,-0.1971875450763104,0.0,0.0,0.0,-0.05731907075591077,0.052743690716617206,-0.250724849460566,0.030679351081957865,0.25929722295840657,0.08447932725745437,-0.14082093657174352,0.6864879592188475,-0.14272903104610365,-0.10063823748673512,0.08773212080643951,0.1251614777176117,-0.09506298476497908,0.26081170430893075,-0.13026164333921433,0.0,0.0,0.0,-0.07758366126489764,0.28292374431349465,-0.5352378908400419,-0.006273816647240985,0.5430697961414842,0.3161156557478821,-0.13050001918526521,0.8582253831672352,-0.5190786303691374,-0.03429854649091362,0.5160405063741483,0.5489135158654272,-0.14898377607403768,1.2474651153444063,-0.32712390559457427,-0.059968217648412044,0.32534387304092943,0.4524150510350955,-0.14087290217221707,1.008231062408804,-0.22902672483713413,-0.07568606294970404,0.21821730862110197,0.35341222789710136,-0.14606933910557496,0.7706196909009778,-0.14833664311684544,-0.05425873447116537,0.1411854987004587,0.2888517473422615
44,13624_hr,-0.04478135215441746,0.21347085099289054,-0.41492423834048203,-0.42671265055924373,0.0,0.04428555203351097,-0.046369054371206905,0.37554053302841156,-0.19848030488379345,-0.1141659914794018,0.10411431672069557,-0.00663421534761401,0.06241795335020945,0.25733752731165466,-0.22246874973281194,-0.21817711789889377,0.019119227751135014,0.044629146039467694,-0.294966150721137,0.30569355483096694,-0.07169196398980764,-0.016126522655704467,0.0013424442015601626,-0.008308689928233878,-0.04484157077940989,0.06646553060953901,-0.3006634545843854,-0.025626652420102432,0.3335865544334927,0.19882782172874575,-0.026754900990070128,0.27432783884478606,-0.033770478621881345,0.008347283695961208,-0.03897910438877996,0.026857070148915106,-0.1718989961521813,1.161228636006288,-0.3391038600719101,0.0,0.0,-0.10016549625282684,-0.10358925480451256,0.564992730013466,-0.1600497190383044,-0.0786001009190762,0.11651910108201642,0.15830257445542767,-0.07030329780308504,0.2684905618341878,-0.03241872666910287,-0.08196113689254453,0.1667822385167739,0.29559713059673937,-0.1965789285650474,0.8706282186716405,-0.5170221324630339,0.0,0.0,0.0,-0.18295485920187593,1.089414898958822,-0.5341867626602914,0.0,0.0,0.03142201284188935,-0.0984634440498868,0.7086255184049479,-0.3693730209632731,0.0,0.0,0.003031090370057613
45,14101_hr,-0.048859304115819055,0.5436110390962758,-0.051327891966429555,-0.016507529650578542,0.018480558679626186,0.004483727183059173,-0.052358576567176136,0.1793397890616931,-0.0653274488777146,-0.01212966201800709,0.013181600649209396,0.018799769371375525,-0.02559400695243278,0.019759538051229764,-0.5781327458155417,-0.002807621711144532,0.4681012963419387,0.08125857978753473,-0.003299813243742024,0.04507324666424439,-0.3314145484649701,-0.01801299953310881,0.15878196063087988,0.022023954965339605,-0.03420673091551474,0.5499169136926083,-0.05389476856172454,-0.01552202570175992,0.01621658590317665,-0.01224357021298044,-0.12246935367999964,-0.021775412463200843,-0.21005699783617302,-0.001386920337810385,0.19152573448160687,0.04242569776312138,-0.017473355772006583,0.07346025140955373,-0.7100770933201419,-0.06954399086419225,0.688368997611919,0.05488788259371234,-0.03508366308939344,0.14015664076081663,-0.9959621025885103,0.019264331511061022,0.8773026351561183,0.1795563160997754,-0.014069635397452707,0.28166370671543295,-1.0924082066960137,0.016979957636395263,0.8763130577894219,0.16530486244683246,-0.03208095699935334,1.0803681853806981,-0.40465744526148856,-0.02076071096941632,0.18970755969279707,0.01792548653531032,-0.06898578007136165,0.9770337314244377,-0.09750971389310763,-0.0711365334733723,0.03075476970187543,-0.019350482305265565,-0.05229448741447937,0.9033841640832079,-0.08229600025737115,0.0,0.0,-0.02006232567575604
46,14257_hr,-0.08546554420929231,0.6814054701379693,-0.08475685742815081,-0.04167864374218401,0.05843759981225059,0.09566298705521303,-0.07502545538461826,0.72374047501801,-0.21562583931769772,-0.07001637724856952,0.025523850409295546,0.04427253471778827,-0.24709198201256924,0.34256937991973274,-0.20160250388406553,0.0,0.0,-0.001734682874952389,-0.18505910513213136,0.09855513197820316,-0.48469173374784713,-0.058126922106251123,0.43601827946511607,0.10604977808115773,-0.05603015205089165,0.3836716302214137,-0.14270041512480167,-0.013367317949867804,0.13878229430263195,0.13157822621878532,0.06634384891055312,0.42032797688280094,-0.19318797604776763,-0.032876134988304946,0.04195916547921552,-0.005632039855964406,-0.05566841623006598,0.11826248105999863,-0.5639217602443694,-0.010437414373633963,0.6513390189721765,0.21319271744272913,-0.13287872873564768,0.7113667357268285,-0.6319077589172886,-0.048612981877064816,0.5490171071326517,0.47721865339180003,-0.09973457504019159,1.0891026678498623,-0.2819998291666161,-0.09479408655895089,0.1728048615684331,0.2152647218796294,-0.10277718787330069,1.2524246960050927,-0.2575648268109105,-0.06662577953923793,0.10802676399651803,0.15417576279897927,-0.0915050473046471,1.1400620611128103,-0.22057524740316575,-0.07077081122081501,0.07940083376082667,0.12408777971282,-0.09553531258448786,1.149926715588976,-0.19600484269346474,-0.05783188987379282,0.0643072139256361,0.11929592686360835
47,14294_hr,-0.06520141963128884,0.538875523669099,-0.0812671771646114,-0.04232688587253324,0.06681169286647422,0.05846713587863635,-0.10970012476300006,0.7404538640492978,-0.08890750822502519,-0.04166870904953578,0.09900090345105163,0.24000178661812588,-0.08631165735808824,0.22373511175061242,-0.022242045312669104,0.0004634859359105457,0.044232904724596345,0.0704286623153651,0.04344154225336842,0.08489515084360985,-0.6376502450534753,-0.058490608941695485,0.520022336536267,0.0835384396849804,-0.018994210901134203,0.19429571325455428,-0.04394827060556678,-0.025150757076818287,0.005402287972262394,-0.007190963489959942,-0.08538587960373382,0.4766590014655427,-0.05963841661450591,-0.020256157755905238,0.07722904888866178,0.1807068930450949,-0.03780098608313605,0.14627178926219153,-0.6163367695382569,0.024259560852125696,0.5415145787179763,0.10836828057550467,-0.0429045275514422,0.34362660235279385,-0.4943805565674344,0.022973915044538516,0.47136972336947014,0.16105682884679373,-0.09960683125961761,0.9212116325290184,-0.5171254724662429,-0.0010932359054385806,0.43453057264934464,0.34723644977839596,-0.10463271755228978,1.1905470134706242,-0.13466576730293,-0.04464125507665428,0.15222617392924928,0.3050860365280235,-0.10353465133469439,1.0529550294734222,-0.07793883001414284,-0.04265034452087487,0.09734427638945897,0.24950721545167864,-0.10170459403523764,0.8934777167497872,-0.06774081951480558,-0.04136395486511115,0.07252749127756614,0.19167674875779528
48,14399_hr,-0.07355524022437746,0.4177013712893283,-0.10335634100062294,-0.015341109208072442,0.09648000094004715,0.06655006382415199,-0.05857932669994784,0.08754882816475325,-0.10419495541323748,-0.03408753434666351,0.07089750899177641,0.015448775846321348,-0.12364363931779826,0.011584363910559843,-0.32837385807642633,0.002119520285522588,0.2556412753383582,0.05870259867837922,-0.21333657186750157,0.11334463836120211,-0.09580174774448431,-0.04874778913046563,0.062403488240232896,0.04382122097588875,-0.039459727495190236,0.4193087946906426,-0.052195911899202516,-0.022232829830622226,0.020342156290384304,0.004060915087195471,-0.08793706696942959,-0.010193281927873409,-0.167824039830135,-0.002932347508833086,0.16471730163720602,0.09449008433100657,-0.06562826051962174,0.029139400662468392,-0.713590733515788,-0.012252619175526745,0.5603149266763419,0.08213043071941513,0.0,0.0,0.0,0.0,0.0,0.0,-0.016523359976439514,-0.013570234591093997,-1.2280408975652364,-0.054268578474973836,1.1927627158869025,0.23541591870749853,-0.016470711933967253,0.03674072518256037,-0.5088729001182642,0.0009295448830315509,0.4310569351845384,0.08389040111542326,-0.03585115746743621,0.3439922276948949,-0.3629658683090675,-0.0224614669401286,0.2685798129197837,0.07203532187600835,-0.047406278521724465,0.46624144150692665,-0.18244075797958373,-0.02677570807188508,0.14572229612868265,0.10897052032949381
49,14777_hr,-0.04823667136542566,0.5894972671287065,-0.09753655847615059,-0.07953338709657724,0.015136187224736775,-0.04311818271658399,-0.048014742113384114,0.21136658864936345,-0.11955338588022638,-0.06819366040179009,0.2154098291330045,0.13302483479285046,-0.6210081207911331,0.21728839772710418,-0.07996473923913565,-0.05647624001636868,-0.015677189265695904,0.08091125570805313,-0.1228053410074311,0.035082086798969965,-0.3466458555630898,-0.004135224045188598,0.31802737660260477,0.05898320257818398,-0.040332117996861185,0.574304034994471,-0.1221468899788855,-0.05234674731078117,0.12696488137067713,0.09859069235608141,-0.3258081997496724,0.22456126144415658,-0.19457311620560078,0.0,0.0,0.04384451004493419,-0.13287430607209139,0.01836593095101784,-0.5514566608521835,0.027120066511589692,0.5666090909686101,0.21477724544020002,-0.11150939368871005,0.1861640937635386,-1.0187650238052677,0.011269708497113045,0.955547477835327,0.6665719969176165,-0.05442739058407879,0.17169285934063566,-0.5500497146283719,-0.01124378649886369,0.4345063270196525,0.16314618273223194,-0.036883703106100965,0.6466085094227764,-0.15764407884548054,0.0,0.0,-0.04293479379158988,-0.040381363420319824,0.5660156980404916,-0.21699999275436185,-0.0675039443155167,0.18835274234536872,-0.023829793664725957,-0.0698975413678413,0.39135126310593865,-0.1824932859706878,-0.06321985536570847,0.18199468106366148,-0.0025747945536756453
50,14989_hr,-0.04161374298144533,0.36649193806132885,-0.0805971491219695,-0.0732787058921113,0.005032742923716006,-0.04424736439299084,-0.07591947266462022,0.20886264513424657,-0.07328954734205056,-0.04452781396600886,0.042131187646974405,0.010881425295529166,-0.05850581959323004,-0.009453414737621136,-0.15003148610929648,-0.03442086467413166,0.10265292006564132,0.041343599329022915,-0.044871118176882184,0.05859562540668389,-0.2340789103075801,0.000653236751570766,0.20324764321351851,0.06211044694868824,-0.012583089955497001,0.2661004499404969,-0.05927543235090058,-0.06929808689148964,0.0020462102101628334,-0.028801594419416255,-0.06862219545029519,0.03602723433938171,-0.05447648392655985,-0.013650253485792282,0.04869501745321383,0.04059506688987004,-0.03490321770569037,0.047048883419167256,-0.7117927039112317,-0.0062195575067864745,0.6261092697428591,0.10898536480112035,-0.033800828490001315,0.013501643150852474,-1.0442090922295655,-0.024456313486883246,0.971529532995033,0.19862981590836162,-0.050811830092607715,-0.022025188495949324,-0.30917500750850185,0.0,0.0,0.0,-0.08770540460001146,0.5837014301800687,-0.0874154493706736,-0.07401446208292524,0.026354396369505612,-0.00493473407133897,-0.07291584763803324,0.7464153790710938,-0.10417444520676736,-0.0911537527796905,0.04121742494341701,-0.04347480905742245,-0.05499842659738729,0.5620755039353804,-0.0806520499279949,-0.08149072840269311,0.014549324046952073,-0.054570156787546245
51,15404_hr,-0.06253525035333637,0.3869922338202024,-0.028709776893340096,0.007257087058871892,0.08268111321104289,0.18795695251328798,-0.047759031497780935,0.24197998339672716,-0.024693177438084562,-0.0035359788157715427,0.05518169541116348,0.11597263862882763,-0.010615871951812713,0.0524626091689062,-0.15662202292250418,-0.022807400466546515,0.11721373566950555,0.015632380984682785,-0.21146978304592975,0.03337163158372535,-0.20354188697459644,-0.1329828490347148,0.02100659769919852,0.031507134816215275,-0.04705219413208458,0.2690666330237411,-0.021285995477243552,0.003787609907623274,0.05346460419067818,0.10903953728875526,-0.027822394638344978,0.06650326289391403,-0.03575045133184441,-0.0062201202321225425,0.04543870939385983,0.016296284843659685,-0.038641071314990644,0.16781733483781744,-0.4902360401666164,0.0025109571929176557,0.41496753161703187,0.1076336387344627,-0.09744313598168333,0.594417831368382,-1.0365727767979884,0.028117629389791263,0.9133549662761838,0.5490807228293082,-0.10925165016971534,0.9553393775814548,-0.6671308647768489,0.00043547691352520363,0.5525223213338121,0.4694825050028739,0.0,1.26299781746296,-0.5005730223076423,-0.0172159069299604,0.42896318953523344,0.48010827450577603,-0.08656313088563977,0.7610424019489679,-0.08143631630030879,-0.008046008744364185,0.11877449809907173,0.31825898866480207,-0.05932150160035812,0.47947490046225755,-0.019199251004466695,0.005049265493767752,0.05903805722510036,0.1822330929239809
52,15587_hr,-0.06031979330494825,0.6719239158114878,-0.09615038756580946,-0.035291430271027074,0.10399559343293872,0.1608156679319738,-0.056568687078572606,0.4008141166944794,-0.10312301582514176,-0.03052080753423601,0.08667647584381963,0.2018558656810332,-0.04101785181100821,0.025088300106335216,-0.28749145411342203,-0.02701530152715643,0.16679880004446382,0.027325850271607704,-0.46041865032258145,0.0930593903350348,-0.14364562035631845,-0.013424957822969022,0.16414976469031636,0.06743162223780011,-0.03622815139576644,0.440013351043345,-0.056869091095926236,-0.03308464243367444,0.00789688188291177,-0.012656819569180943,-0.03886491214955308,0.10364386425653012,-0.08644360777602937,-0.016395334083527422,0.058716166471936636,0.021322006830876268,-0.03840321177429825,0.06463137796892862,-0.3320593084385213,-0.011213683612037272,0.21178323786309336,0.04327006712875489,-0.04261258000717003,0.27297624922269736,-0.6281632199315418,0.004283284245598632,0.5477771565938654,0.0767330873470349,-0.050830725520837845,0.5605260269239396,-0.7077902953104959,-0.010170355818593935,0.5447676150820728,0.2178017836012745,-0.04324678711701106,0.6403703143891792,-0.5354153946995728,-0.02654320082991192,0.398373703156818,0.2034654818186056,-0.05205249576601325,0.8891497869544874,-0.38062962186455446,-0.047149620553546386,0.28001074031699846,0.23869741718507936,-0.057943608998031325,0.8951905313856029,-0.202708432311334,-0.04491851046763035,0.1724237247387919,0.24156277649010413
53,16068_hr,-0.10807081152427221,0.3538489920718396,-0.181373324012751,-0.020917508435570522,0.16300142964387704,0.24334870833628758,-0.12438338166282509,0.4820276476757331,-0.2419521112429834,-0.026423650640784658,0.2518354915622727,0.39225890142385933,-0.04359308242590295,0.1873424029720283,-0.09454731795047074,-0.007417252740964494,0.09191192062776027,0.15447745367572646,-0.40814213388093784,0.2103542420928156,-0.317721799558046,0.0,0.0,0.0,-0.05543058364638916,0.13244732334759673,-0.09900362148329246,-0.0034213312413607904,0.057702024413788605,0.05243820671565537,-0.08926604324544835,0.31746308727698735,-0.16283225804961574,-0.015840013856680216,0.16894893895242605,0.2718291392749275,-0.04460940251399726,0.1890499933411232,-0.5779564941001654,-0.017165861944177324,0.5260130832922164,0.07645777399408583,-0.11467319659655548,0.7429835750993038,-1.2863148711270207,-0.037691087450314756,1.1250612481260196,0.6442849668771272,-0.15744770938251976,1.3292490609061711,-1.033527366417933,-0.05756157144694979,0.8648284615826333,0.6411945722029473,-0.16389588879859754,1.1185184520322182,-0.49503927221197214,-0.04466873591860827,0.4552149549589903,0.5002044819827984,-0.15248110470585394,0.8569800522662999,-0.26963958654740966,-0.038002385728592845,0.2715570165010721,0.38934086845391125,-0.12271107846345765,0.6290857262011591,-0.14601886732561506,-0.02870467194725145,0.16765251499459277,0.30093267265282814
54,16131_hr,-0.04768566601524129,0.35530991432386805,-0.20635101228992117,-0.017495849821448396,0.23995590328337651,0.317255892895378,-0.12251675498945563,0.8415419600479273,-0.226476568278241,-0.03446048548934895,0.2828681547371055,0.4828889136868128,-0.09363926202871521,0.5031085957447399,-0.061866951427646935,-0.018335206179377797,0.07517145246574984,0.1664284959000643,-0.5934236112777185,0.21311486494052373,-0.4020823446619602,0.0,0.0,0.0,0.0005945389321739532,0.05121663582991043,-0.13890376780407482,-0.002329707556031714,0.15833681726324697,0.07556512236134204,-0.10642115674597546,0.6689518700690162,-0.13642185735909745,-0.02632885713920303,0.16952705524447118,0.32432282958347114,-0.25250934859670393,0.16981111594264667,-0.3506134413497855,0.0,0.0,0.11617690989087315,-0.01879403228781202,0.26153365664249406,-0.43226193243577615,0.0,0.0,0.06864579130898084,-0.07671849388431318,0.3444781173187356,-0.5581444273561557,-0.01672228884718549,0.5973742948940014,0.2703142315204533,-0.11807217940348849,1.2954583936947026,-0.5570767392391489,-0.061546112294433734,0.5500336885765227,0.5887668576096636,-0.1287358425090927,1.5292790920183477,-0.39709192075740624,-0.06497776552761808,0.4642993753470313,0.7352343195322489,-0.12222015882172939,1.1045438575752446,-0.26354427998588176,-0.04148418099173598,0.33350645394757017,0.5721053123485282
55,16155_hr,-0.07343455276129154,0.21385836431625252,-0.29684951403264875,-0.053507679853582624,0.25235549431300225,0.16955331298183882,-0.11720896299155073,0.741339568957013,-0.0683617976561048,-0.05457474713217865,0.0277487864744226,0.09217081320487064,-0.07839477347825115,0.7092184074312696,-0.09424059148741029,-0.06574078652390353,0.03145684514130001,-0.004579623989140272,-0.44773802391338163,0.1325612983081791,-0.1295338722269262,-0.10038279932161594,0.020614697900062817,0.041841539878651295,-0.021530104518880235,0.04686289522822352,-0.4417025550435715,-0.04436383382040892,0.3898745746244619,0.12681560512733608,-0.08499424007190604,0.7044659503053603,-0.054304793742335204,-0.04120902542031173,0.024170130886854126,0.013943758397711567,-0.03832763310467079,0.16407050980751645,-0.6348108985551189,-0.0745996876286123,0.5404780307013957,0.06296081176036801,-0.07178258846635023,0.3112147805213234,-1.9612939477159337,-0.13403047903272503,1.8214937688549833,0.6179048370610702,-0.1394729914460846,0.2625107033200034,-1.4022323232069014,-0.11925687898457946,1.4129854720990733,0.6772942468543329,-0.14328297164091827,0.6242257337140112,-0.5193661941090457,-0.07741151201260102,0.3578462334184244,0.32100500638938934,-0.15270777697213347,1.1925836957663796,-0.29451924380494593,-0.0968095348896693,0.15405926127377015,0.15673932557662743,-0.15101391671848075,1.0146898330553848,-0.18465831736238889,-0.08001572432780713,0.09617104981172221,0.11682327191427622
56,16177_hr,-0.037555608645625134,0.3283230037675689,-0.036823505872798694,-0.021348019002438462,0.015033393514807675,-0.002826412420574742,-0.05325279717787662,0.6675147572109326,-0.09398871200671041,-0.07691079330970475,0.0406314410193404,-0.0079058816651329,-0.04509319195520074,0.3453198075179163,-0.06327669058918416,-0.06111572615517131,0.014111269607389246,0.001971154869345515,-0.09551772685960357,0.01023383216913127,-0.4110653645338542,-0.013312798456156641,0.36139249712959937,0.0697314148429224,-0.019420820690354206,0.07311646507746851,-0.017551946767582437,-0.0018272351777567754,0.006686397607901886,0.026761590457907453,-0.03530775202283272,0.5054385139798016,-0.07696881099033201,-0.05918268508168247,0.023820046527093575,-0.0028822400490634554,-0.22811138507992185,0.03245454206913228,-0.8198749081089428,0.006659733047029591,0.7862113778854554,0.2641027360499169,-0.08113380259541791,0.050611420161461036,-1.4390873844467023,-0.03482567518810223,1.327590423401541,0.5499310399095786,-0.08479012810047887,0.23681973979910478,-0.8923019355142233,-0.019142128726087285,0.7953979533961872,0.38540772094702536,-0.0997302753099552,0.9328628778160909,-0.1522934585334252,-0.07056700472308233,0.030681187747355742,0.0039917278943933975,-0.05588264681766882,0.9473741293559771,-0.11262805151158685,-0.09050584757655471,0.04392803270199028,0.0006483193001061933,-0.026425943394279866,0.7413135614741464,-0.10025870029526378,-0.07862914729769402,0.04823440642029524,-0.007725797495227249
57,16376_hr,-0.059537368124087754,0.6436727904345622,-0.04736007324692079,0.05659755300445222,0.08130566814057115,0.11258836885470566,-0.04468714698025816,0.7306477842886234,-0.5546895611922172,-0.26383087105175074,0.35296726017997926,-0.13125732201766702,-0.42569735061563035,-0.24119468642320077,-0.5893913489722497,-0.005133086297597962,0.7749331452131005,0.26227449168032174,-0.06222594536631669,0.10175747933253405,-0.5634606418267488,-0.0030096798464552136,0.5052999063415979,0.17377153092460232,-0.033806547714858165,0.37923841999058805,-0.03373811775887991,0.236523224440216,0.2702141355125542,0.37281572826812226,-0.01776158296495885,0.4085544991381413,-0.6153485054265981,-0.031471893769865186,0.9454344322961747,-0.3564854267540508,-0.13273802615259492,0.14438390893413555,-0.734674299786572,-0.10427827934620174,0.921473771754717,0.43083819023319025,-0.02833472064100928,0.6510905667648048,-1.5346889187562056,-0.2544148964916572,1.8288385180184679,0.9741802861550085,-0.030174658638693175,0.8836295494396562,-2.1112000559433137,-0.5558894188542365,2.332364241919394,1.2122759217969585,-0.038632764137675635,0.8596075261085254,-1.4757276449548444,0.0,0.0,0.7107380432862005,-0.036383594744510694,0.5021175475422116,-0.08686792333148356,0.019963298765489936,-0.038203062415867434,0.07682221685236004,-0.026978618292653377,0.3214138351830836,-0.084388250425368,0.023713808562602027,0.09658071867739836,0.1724664703153103
58,16864_hr,-0.05030972227931289,0.371866501138226,-0.05685574853941672,-0.02552268228471284,0.06524841705572837,0.03756004384132624,-0.05970612229547835,0.3136483782367962,-0.10831248984809003,-0.043416789820779386,0.06499639997703135,0.058737537250641084,-0.03238590567029877,0.03992791105553229,-0.1457153924682722,-0.030388356325253087,0.10939298051140807,0.004558487538364044,-0.23962457111618143,0.06174894645177333,-0.09066313584311418,0.014077625478379803,0.04236672064433717,0.05066957820569533,-0.02566525072086596,0.22835260153178039,-0.02873254505015076,-0.019948737033815066,0.0153364836829457,0.007425701906427928,-0.04113836281520308,0.13810714061860913,-0.10566551358031542,-0.030574792499589616,0.06298971375170793,0.010955425794695535,-0.03997810579337017,0.056945393772013686,-0.343864534750361,0.011681999325974786,0.27164389749594336,0.054844526219705945,-0.0748739407259498,0.33980146155668833,-0.4681892119201329,-0.011169811099575103,0.34639900540406976,0.23180329692555698,-0.08881781451747289,0.7231776277308491,-0.37259066430126614,-0.03838078059323303,0.256899408701708,0.24661054194772938,-0.08164296913335836,1.1477347502163082,-0.28586963397478976,-0.06795559143940837,0.2008870383980971,0.2808378177009038,-0.06857986385691232,1.1212099929977108,-0.18815462639299058,-0.06958444706031783,0.1418411480588267,0.21532976145251423,-0.057287550757706494,0.6685311483514752,-0.07884150577223212,-0.050463531486064195,0.06078321853313453,0.11592991898203926
59,17378_hr,-0.12728176169216,0.7465789336324508,-0.09153732400551592,-0.061960638440085196,0.05359854501471204,-0.006382325500120137,-0.0940621136176869,0.39898308709453667,-0.07543999855552634,-0.053035879002616505,0.046916460662829486,0.08260622512151533,-0.028452523809460416,0.09105249665598315,-0.34629636762493926,-0.009834175645763306,0.29399064661075897,0.09364336349618509,-0.06633394361323255,0.0940784088345311,-0.5688899881494579,0.007201036891092364,0.46360609909527306,0.07888560473001816,-0.10530759474674335,0.5478710914114403,-0.06318592092245653,-0.05991855954648927,0.0013931282246771259,-0.03843317723754611,-0.047331563012299134,0.0693979118011329,-0.05986056976676424,-0.03223352847137596,0.031982371991422856,0.07344901328299096,-0.056840661598643503,0.12593729510578228,-1.5984019728272476,-0.01056867308706487,1.402765930215297,0.3868485972953977,-0.12638078022848648,0.0027782851277564995,-1.8903318199998744,-0.10289411702174885,1.7477553086945308,0.8520184823404845,-0.17416677759319293,-0.009185814355305808,-0.8861824928790991,-0.08937086644139174,0.934937151229689,0.6728586701234105,-0.14606736488548555,0.21544750986468264,-0.3034822692058135,-0.059311228736104504,0.25081566592865057,0.32696144588832227,-0.12238442025875977,0.6066037665577307,-0.1232277211506843,-0.06801792694936111,0.0820002207277317,0.14014108921160445,-0.09594055860962729,0.6407112861412011,-0.07524904121079612,-0.055243148010825124,0.04420169212441914,0.061953694544515096
60,17407_hr,-0.006971507414037079,0.47099295816197406,-0.1603468160549161,-0.11269458138842285,0.09860529906195807,0.002141308943059991,0.0,0.0,0.0,0.0,0.0,0.0,0.0,0.0,0.0,0.0,0.0,0.0,-0.11805026128173836,0.10564782085178408,0.008154739924304913,0.0336340326902281,0.04935438070434869,0.09665915943131421,-0.024362909832913147,0.7129169198025082,-0.1330797547850701,-0.10600105262539015,0.05157848730761323,-0.005603402195546003,0.0,0.0,0.0,0.0,0.0,0.0,-0.09673746090547856,-0.010087400755858334,-0.7807279298432096,-0.005126186048577002,0.8401346312353563,0.23728355073555285,-0.024510517139491397,0.015561473461210831,-1.2484645273822255,-0.08078648312802285,1.3171166973298911,0.3537884227241363,0.03547035005971541,0.07302310216268666,-1.3462594666507313,-0.0739077951927668,1.3552010276199709,0.2173029201025867,0.0811929896625342,0.3839348986455655,-1.2857794459983996,-0.12229255310403131,1.1122859162709071,0.06177403688894068,0.0875613039925331,0.491448491289111,-0.9241967830604938,0.0,0.0,0.006964183184152103,0.05465425580695111,0.2830253087687406,-0.5459661096249654,0.0,0.0,0.0038607565650397428
61,19877_hr,-0.022174943348776798,0.1280695381042697,-0.17705046402883132,-0.0611137376156706,0.14227047975189888,0.016048669656308575,-0.07330739517388188,0.012635388345593135,-0.14807206367140544,-0.034981892264958396,0.08368495167312252,0.03835936590074363,-0.13270104485153608,0.051657436602791575,-0.021645479684332423,0.00948971520899359,-0.02405366782208007,0.04478271495652584,-0.06366063018546643,0.16538319558014442,-0.01990270983210809,0.0062108120287369594,-0.01455394697214852,0.021703199987556772,-0.0056950888804596965,0.13270202139337461,-0.10949285482771166,-0.06622475396004988,0.03955859703119352,0.003747921819677985,-0.08951792325679167,-0.004814397772341488,-0.07175715217072157,0.00025035068645328504,0.06207404579350297,0.045682300076023336,-0.08110716727227478,0.048741983228910324,-0.04648393432494076,-0.009935913004630656,0.017232479385027547,0.013843232254104984,-0.004678736316296961,0.10254027101344053,-0.3767795231393346,-0.08010342791080523,0.26038099625831485,0.028625227851086288,0.0067041273431582855,0.2009705985347688,-0.7652589207345033,-0.06875478775576611,0.7157336511190788,0.1362818693465691,-0.008929260818466194,0.4270073952364491,-0.9887722984082065,-0.07677468205309904,0.918005471104831,0.19594159479046724,-0.025772241699606516,0.4266974251911329,-0.7510840946125594,-0.06107340304676022,0.7149141005344835,0.18183152484932238,-0.02577521887929271,0.23337804622315364,-0.32267060229272165,-0.03904998910366631,0.32791831828807294,0.08669892595798712
62,20114_hr,-0.08208984495958557,0.7682329697116387,-0.1474965371070955,-0.03988170587607028,0.22984483779498235,0.13815913216997386,-0.08253844021703474,0.29041434679644174,-0.13540603903193565,-0.06564497417299305,0.1475240620186205,0.09818101020991567,-0.022221954608057152,0.02594695488934996,-0.44289046832070456,-0.08987327120785861,0.3140267275572769,0.03910218179733679,-0.28877416118611277,0.10045230676786239,-0.2704568423416909,0.0284564394290902,0.18298734968718833,0.11464132702774284,-0.04943103985764726,0.6249272029414835,-0.09036295908717529,-0.03134632648130688,0.10440563444380246,0.008313485220151804,-0.04911784665573683,0.0014895058277221423,-0.10270199928808546,-0.060374197297721754,0.03195016478805052,-0.02169277984217889,-0.035870094425793336,0.055542682144572385,-0.48116322631347447,-0.0180015857146619,0.36951713948091713,0.06724427163204495,-0.050213436262582754,0.14585913191879288,-0.29464140294162866,-0.019264032055989568,0.2155438098518661,6.879871433147714e-05,-0.06643526197027143,0.3279250072439192,-0.31744596352344495,-0.0717967548025263,0.1883197088493029,0.18127840065134898,-0.06934066370476824,0.6227249215357072,-0.2258591257902926,-0.11579286894565384,0.09021213521908697,0.15425527345025916,-0.07373024428394279,0.6649362840310089,-0.14825478278853393,-0.10307197029868047,0.07773422519000031,0.14918087196341656,-0.06526111411867598,0.5270131270152809,-0.10823131585890414,-0.0786984213797252,0.0604375097342927,0.11817594112276515
63,18183_hr,-0.07464328207401681,0.34241625370140943,-0.1868458582811565,-0.02959231524690788,0.170914051763543,0.09836051202474554,-0.1016209178905313,0.41470062306880323,-0.18747724463614424,-0.045096952889670715,0.17382319602183166,0.10570569719939157,-0.0247552187416155,0.11728488281045302,-0.04424041195307466,-0.031572696567023946,0.043899067116405434,0.015089520868780777,-0.40475607057623414,0.17148152660161456,-0.11079943385384311,-0.05308104111800142,0.12070322329282006,0.045368703241406357,-0.02440206934540832,0.14108818785441027,-0.11078544420608122,-0.011429414383181062,0.08922263923938488,0.03889934206890626,-0.06769379362811767,0.24836571720336822,-0.10046490688827289,-0.041601293636593754,0.0696664379843377,0.00844337138700714,-0.00930192048459804,0.06956825352916206,-0.26648677324397924,-0.04000685226147568,0.1871811708209406,0.024912400494058417,-0.038576699592697015,0.18677285930899581,-0.5604777560329105,-0.029779624090211707,0.5044504173216826,0.07286000031000578,-0.06988993962924119,0.5818383556794423,-0.37889124244871186,-0.06202055386860251,0.32120975855108025,0.12087253922828593,-0.11259932401783855,0.6733829742615205,-0.22370617990385513,-0.07102807794037437,0.16386014595902265,0.13524937159241743,-0.11269795687337646,0.6745123533391721,-0.2299286093145088,-0.07153983124154856,0.16427382217838415,0.13592421639676422,-0.10859398608675414,0.5631615804512569,-0.13341497690870655,-0.05059229733422256,0.10498064386410044,0.1064682172413844
64,18324_hr,-0.03709616308156711,0.22199653407645772,-0.07769411555982919,-0.04337576636964515,0.030735027484883208,0.0061877061983858376,-0.04023266584556151,0.19521083806586298,-0.08515953427401936,-0.046132180018559905,0.019726450968060874,0.0021287835203801187,-0.05404088027202804,0.03520492287017719,-0.03320179880991715,-0.020614620565054344,-0.025073595220934965,0.0059321108366452305,-0.20705144340481466,0.08091239496526208,0.012746103723537575,0.04375039504861403,-0.006698884025716218,0.05159788887275016,-0.027070413304973024,0.13067595659501943,-0.04151333091555741,-0.032798739549520624,0.0029900729289585558,0.010105035482304445,-0.036490443640662784,0.08595824858709,-0.04039463160537984,-0.03030309747838939,0.004823328514731485,0.035497921398571324,-0.1544401800638805,0.03608403826772653,-0.1729045224106127,0.020667156939752292,0.15153891283532972,0.06534453042974596,-0.10047489669339485,0.00407615212713391,-0.3184247291752196,0.02645344361178312,0.2513830965234619,0.11517693154667392,-0.02994251963454973,0.05160982224125509,-1.111789137655654,0.004467843385620279,0.9716521154278173,0.23550471916313356,-0.04712570215633426,0.46042650960617165,-0.8573378202939691,-0.02294012322757703,0.6665427839594694,0.15757518128349424,-0.04249026896855304,0.5999166226962747,-0.6118105085276612,-0.02965106218664692,0.4703914812042655,0.12651721658951212,-0.04070462807086514,0.5096123811128319,-0.27329281428804425,-0.04095029420824215,0.21164486851706332,0.053402297817258776
65,18356_hr,-0.07183908237594258,0.5128591252076332,-0.09509110180510948,-0.04657777792125508,0.11210248388271368,0.19914626494626494,-0.07720733872535313,0.45781533779810046,-0.23072376185592694,-0.07513956645108463,0.18889826940017393,0.17650385038960434,-0.018542146410508165,0.06167784109954807,-0.18719496399052132,-0.04446425412549829,0.13106728463373496,-0.011786760472256805,-0.4799053209068573,0.15698815894883153,-0.1623029952791711,-0.08105760801401687,0.08806570386887207,0.054019852149337654,-0.04328936397407887,0.2964417177210237,-0.03090157924357058,-0.002276190809587851,0.05588061710139902,0.07324604844525857,-0.04600268748638845,0.21450941299378032,-0.19500161202926566,-0.056450250578156926,0.12743353511838695,0.05523871988200399,-0.032649198034872484,0.18496306033003726,-0.5197123906346711,-0.012568438296270669,0.3815447907791408,0.05288629568832117,-0.08042514479528032,0.24719937388425517,-0.5739915175637748,-0.014508369699256075,0.5072746196396722,0.2897944200256071,-0.1085401345607135,0.2654520695999926,-0.46248732361844563,-0.043608984499650734,0.4435638202487004,0.40375356934693857,-0.09029094715402325,0.8680597340418634,-0.24920225718638586,-0.08942561929094858,0.19688437636427675,0.2849317127029282,-0.10625828927527801,1.0315891003480548,-0.2014748183727427,-0.09766124073138002,0.1657701106175639,0.2622171369889586,-0.10074347294216578,0.8087262428366877,-0.1332886071454506,-0.0753218678776714,0.1077443254687675,0.19755638997368688
66,18468_hr,-0.08137905945951046,0.3397739647026183,-0.18355125043819862,-0.06981062317272223,0.13294275702725597,0.12502152848021997,-0.1170288574003208,0.2354380868363063,-0.1768782912344183,-0.056058357155556314,0.10138992510441941,0.1581500874170439,-0.04822762356616823,0.25343294509442,-0.4465826276859186,-0.030856787077615137,0.3395353009807231,0.0978061804154083,-0.035244372886491994,0.10023488447631815,-0.2254856094254999,0.0,0.0,0.07321397132365193,-0.025140060266431865,0.34153636526531117,-0.27999855651283023,-0.04940483113880048,0.01316874448273233,-0.018065888264774864,-0.03871207334938394,0.25349321072261605,-0.2708006993398579,-0.06428099217220044,0.17130491654901003,0.05246018584657548,-0.020812342795466433,0.4072748477694089,-0.9807363291993809,0.0,0.0,0.1314937272673806,-0.03036309001591107,0.6390706966862446,-1.3994000235126514,-0.0815967216961776,1.2995743470022556,0.3496945600721804,-0.08238497259987664,0.769393501078386,-1.1760610575902704,-0.09241563978858888,1.0238481766183498,0.382135536794907,-0.10771821931192704,0.928930213680508,-0.9347084858905677,-0.09955369700383813,0.7316832287268293,0.3404370201284878,-0.11133584054715509,0.8933514190181375,-0.6138264351729574,-0.08720925876446471,0.461846916552182,0.25797234266809,-0.09577237479776252,0.46904581418212266,-0.13030145682150257,-0.08112974184090306,0.08937533166868611,0.10935872757730854
67,18547_hr,-0.09169469010978401,0.6634041529677955,-0.07732292455497666,-0.04210739710328756,0.07982705475579456,0.2363454523447023,-0.09105585469428545,0.5543270737231343,-0.10776162774260223,-0.06155504254388006,0.08779977271221563,0.21813019667663364,-0.027520547582543582,0.00022697579154431273,-0.16288432172562345,-0.009734784628648454,0.07323232218455392,0.005330949835111505,-0.13176816253213997,0.09153538009440165,-0.5534617244397094,0.0,0.0,0.07888183871575713,-0.04807335402299843,0.38670621407730815,-0.03521168999320927,-0.013310411206410879,0.048180592826552494,0.1035159664622429,-0.04778522090932365,0.2226169593736895,-0.12499506124539103,-0.03745851903407882,0.08685109936303555,0.09917045433843326,0.003489876969070389,0.15998633527082273,-0.671669265220484,-0.08103082240955868,0.5528361084134293,0.057698461072479564,-0.08619155476388007,0.33706301481184214,-0.5993323137616903,-0.01376681192397348,0.592655588353387,0.5738350900577155,-0.09515420597737069,0.5461163676235734,-0.3779479506037597,-0.04876844480489717,0.3089780764495075,0.39038832132903317,-0.09372270995531665,0.6906664780130601,-0.20677258408032434,-0.061336602203554136,0.16240163954777728,0.31441300800232347,-0.08462309317778645,0.626775301180467,-0.08329344085312759,-0.05404036898522086,0.0745610626005703,0.23820646178174051,-0.0793814217185819,0.5243198007891706,-0.0646146883083069,-0.04162480215334225,0.05755114783528351,0.17505594252689033
68,18833_hr,-0.08183587652464544,0.3268586788478337,-0.06060712022079873,-0.017650202408795616,0.060089025001339245,0.030888299384294042,-0.06155972555299238,0.052407637591784725,-0.23376329306700505,-0.04753824101458419,0.20693511164707318,0.12810801539723451,-0.02607068860837907,0.05383047922636367,-0.3265196310692168,-0.05342376940820453,0.31918553993321047,0.0709365664540278,-0.17772179050365955,0.11833737352068788,-0.02900943248981619,-0.034475743885691634,-0.02020201552493848,0.02578507523256664,-0.06645149643598834,0.3182919590824794,-0.044170353116448985,-0.022077056335405403,0.01295372311945047,-0.011385769200743079,-0.04019023204479182,0.019023315223057512,-0.2357366046580462,-0.028397860063187837,0.24207984631096896,0.10005349319738646,-0.04107085124131529,0.08700297093710285,-0.1893718538635179,-0.019143653673770113,0.18202811359916,0.04114396971036491,-0.07502167348054409,0.3206879067220322,-0.704729036062465,-0.057970659128625916,0.5879608785930769,0.2869766871071525,-0.07484525607043364,0.5139948411487594,-0.794461049544151,-0.08436568690251892,0.6589135646764295,0.29873923599150404,-0.07230774578475205,0.7260144513220064,-0.6426642258965677,-0.08462496129219543,0.5171721979894628,0.19837181183471914,-0.08450149424889429,0.641676196548992,-0.32589865753424435,-0.06293234415332481,0.26699411694139324,0.0978294863376795,-0.07644974658151675,0.37871190123744425,-0.09582348094642044,-0.047009243215001974,0.06816943914957686,0.056475758177295374
69,19433_hr,-0.08822878245279135,0.8124937710272295,-0.1937120672995191,-0.06748459177554837,0.13352178849391122,0.1092381690710027,-0.07986645704175492,0.5107814617330001,-0.21251563957657324,-0.07642476434359988,0.1414591495932609,0.07253671241662472,-0.030254617368206775,0.03291379220840672,-0.32834513713214236,-0.04985558593439351,0.20738330222316081,0.0023057882607002843,-0.6934805057608806,0.2043639176140539,-0.09538171091264447,-0.09190434589998325,0.008288625138617875,0.07906233912691032,-0.055602951236224385,0.5645738283349755,-0.08929217900989009,-0.030312675926177358,0.058545577505589586,0.03377850582199351,-0.035886707469236015,0.1325320949888194,-0.12043872316291512,-0.036059962457517775,0.09434958800276765,0.027047911298899725,-0.035415589305177846,0.019748214938648742,-0.9525718220482958,0.0312368904233618,0.7626254003974544,0.12856141697022477,-0.08279097278852388,0.005007640214871004,-1.350782752191999,-0.025529395382051047,1.287229613186091,0.4956756956393115,-0.11769119731113661,0.6300137141249458,-0.9833241744195929,-0.05211980524574577,0.756227348298197,0.3770388835980453,-0.1152886581271535,1.017223231657786,-0.7965261186798647,-0.07947856738651636,0.5678895792906484,0.26428288865404764,-0.10670993856667724,1.2108412988230473,-0.4527544594291044,-0.09928086679335989,0.2864111257359914,0.14945407396850424,-0.07924709159763281,0.8890775331778753,-0.16675947848266956,-0.08823674249879902,0.08756653161740438,0.0677316144688813
70,19470_hr,-0.06068277442929571,0.41120934454054375,-0.15882996282463288,-0.04344498550701278,0.14085643571407477,0.1336708681792704,-0.06915837136380659,0.5199044501561366,-0.23572486779019927,-0.06361313012724294,0.1905514739998416,0.13019746258557063,-0.01722792308683815,0.16462986986713918,-0.08595293517313901,-0.023139437736028688,0.07037852354268784,0.006644100391337379,-0.4617829826939907,0.19515205736784175,-0.131936681118896,0.0,0.0,0.0,-0.029483604489636658,0.16781572046316934,-0.06536412221928768,-0.013421404196290617,0.05993587397342744,0.05564934140598517,-0.04006521334162593,0.32568832648042956,-0.15941376059409118,-0.04116001818659294,0.12348828996192306,0.06616603391764866,-0.02792621235324026,0.11024789247291704,-0.5637585194328426,0.0,0.0,0.06751446446662653,-0.07950667040325769,0.42281435540832235,-0.9391621374923242,-0.04773490545791795,0.8509829788946538,0.3806172112996023,-0.09952402633189822,0.7071978306392226,-0.8123354603078746,-0.06899253370781396,0.7189908120032401,0.37572413507840197,-0.0947547696085077,0.8351720603187468,-0.5805345518181967,-0.0778065686379847,0.4909215691390694,0.2802424349141815,-0.08933382555531555,0.8235054877098558,-0.41621876641595823,-0.07714377526467281,0.34834733069532714,0.2140356345612755,-0.08181798750489078,0.7312405076073742,-0.25927664185677396,-0.0656925965129871,0.21355286336214666,0.15336450914821026
71,21825_hr,-0.05082441734167435,0.2075542428987007,-0.20597791048829944,-0.014195475448429144,0.19992138859486414,0.1641004849575727,-0.15162121626151226,0.7708326859519339,-0.3121445448567607,-0.10991317320451252,0.203540305932251,0.2986745734673877,-0.11212108945183619,0.6076905219925682,-0.1396683379209402,-0.0852527113617441,0.08309005643072596,0.16852868428331347,-0.4665424554717606,0.256104138480918,-0.22487608206914417,-0.07431223112124805,0.20448828865277646,0.05006461247637048,0.004859002627211501,0.04556674331933333,-0.24074507745880985,0.012660456037627027,0.216885394116825,0.058698802291186555,-0.13210555297824614,0.6847412907379383,-0.22281788951385448,-0.09693730505557356,0.14507031635111747,0.22828864583386502,-0.05840930917291891,0.2096189892487895,-0.7550609263979421,-0.0168996817841829,0.6479467244896671,0.1790077314504211,-0.09831806552017781,0.33464936221983427,-1.430839111933635,-0.04615268892745996,1.2920054577522673,0.6043518544231666,-0.1252284015898817,0.43510722894486076,-1.4026168247100297,-0.05587591496210653,1.287119351220586,0.7339078533020139,-0.11314116571367608,0.7551648740684918,-0.8767569408316991,-0.07710500600900841,0.7534144900171273,0.5941162265509186,-0.1032935454180391,0.6954291207416428,-0.40530102495407505,-0.07087940656721578,0.35522464264728904,0.37968713096756285,-0.1036065731888002,0.5955647791247478,-0.20348224985709243,-0.06824952687990811,0.15490230455110582,0.23943665141586423
72,21626_hr,-0.04694318418842771,0.6358040365186467,-0.0921149351667536,-0.05077885455845165,0.05134629761529342,0.06342376217116781,-0.041023828896145434,0.1979713301350601,-0.06976445090704472,-0.036580422348375496,0.05817604209184749,0.05037682280639629,-0.1540818759754022,0.02189718442805925,-0.30904792321237506,0.006016992199676216,0.10942825069541622,0.02463122832775394,-0.251275514917391,0.06491874038006804,-0.21213829299219703,-0.039832457559840447,0.16359775459852197,0.054050743269828116,-0.035919296692998884,0.5371090035203107,-0.0671424122699334,-0.03816735869616424,0.06072972713597215,-0.002179417010780886,-0.04887269617680434,0.00549327640349199,-0.09924453148474847,-0.03242393787894419,0.08375410579239921,0.010529638946058129,-0.03848317815353955,0.11401830640755624,-0.39113794617351255,0.0003752654045060448,0.41758134847385187,0.10525116426327721,-0.08171142668944478,0.45238538965411423,-0.7728621298672057,-0.021236746600513813,0.7295161590992414,0.35282119928852884,-0.05667821702418996,0.850862154663281,-0.8081907611020325,-0.058935949463990195,0.6643897259019954,0.2531592080822071,-0.05767446030494142,1.0017465856439192,-0.6422421939370354,-0.07753097839656667,0.4966778095120904,0.1499732506468405,-0.08167221730180703,0.9696299824386669,-0.39262918161202887,-0.08988531344711921,0.2843217791605729,0.11028435167505513,-0.060048989336153685,0.6401052002471141,-0.11501099079096495,-0.07708593409164484,0.06270897157254204,0.041877727685977445
73,00061_hr,-0.07692610771067945,0.3031390563647753,-0.038872217337550474,-0.005527361785969972,0.09101730004697631,0.24884120732564446,-0.11885705650553577,0.6191608086256286,-0.2586203597748564,-0.04667033725344788,0.2578090066891725,0.3391059912218706,-0.050598646605660415,0.3199431519787943,-0.22764243582626373,-0.028993453948234337,0.21307249401645004,0.07954690207478966,-0.46114775792936047,0.1464707918648878,-0.2950542722590014,0.0,0.0,0.06771918314219305,-0.03454672253247413,0.10244853209216073,-0.001082016396312244,0.015546261087293033,0.024993391521773566,0.08641122010527441,-0.08426731964599395,0.4688011582947737,-0.2423580623005041,-0.04240778877566878,0.21401391441741144,0.21674359741057472,0.0021853362545075443,0.15433864296012614,-0.7920378762992871,-0.04529083088635717,0.7046841017799892,0.07546870372709281,-0.17881447228893993,0.21627522139174377,-1.3981073761428464,-0.03898628625898968,1.3783164266828216,0.8107181337848574,-0.2085652255502251,0.5954014114309999,-0.5923477334011753,-0.02712749601485732,0.5460299612279823,0.683583917949257,-0.19121062106028072,1.20998450101964,-0.3787836866784794,-0.06343047518261238,0.32561239620972426,0.5355852986636378,-0.15914440948609623,1.1296900913905554,-0.19544979691355496,-0.05367800024856585,0.20867984504825943,0.4384074828271064,-0.1286105992946482,0.8567939755196669,-0.07918902790435135,-0.03523388912908153,0.12543328042638938,0.32015418941706764
74,00132_hr,-0.08472319518945531,0.7558196421598329,-0.09852676561784196,-0.05405086085520643,0.08363018207458073,0.05851634205565412,-0.09926925896618992,0.4105501357421532,-0.11523912460735941,-0.07139351247385527,0.10041125489310927,0.13103961909706324,-0.03885765559533914,-0.00987942746415003,-0.31435147386639806,-0.042261251235370736,0.33860939615286023,0.06631768072041126,-0.10783884377701956,0.09017662702680783,-0.5400146817084861,-0.006117892939761273,0.36061331512923817,0.09757059371603903,-0.05820833591165448,0.5525345443115365,-0.053260887633009374,-0.03136264216828046,0.03269595152065407,-0.005247247542304523,-0.01708068717558125,0.10857091314452344,-0.06769555334763126,0.0,0.0,0.03509170520476763,-0.05454421090003988,0.015389209219840114,-0.921994079479557,-0.04345037808636548,0.7761182466802498,0.3371042066285809,-0.1224089851730994,0.18185199365949517,-0.8959521494332688,-0.08273508560993496,0.7450698009777517,0.574120693694547,-0.11876376567293417,0.630728465183948,-0.4374828851924428,-0.10313248875047203,0.3114278644711142,0.33947538041166997,-0.08987913140227465,0.7623715778964762,-0.24554787555163227,-0.09534807060990437,0.1521193325310729,0.176488277875085,-0.07843062990293466,0.751256643898336,-0.1367499808111361,-0.08385499146703895,0.0854072754464399,0.10303628579063395,-0.0622535001325659,0.6212392479849501,-0.0856320139063812,-0.0601837854820797,0.058092433737025086,0.04256190304208295
75,00172_hr,-0.013708105125347288,0.2657915615343844,-0.19298114854605172,-0.06149461077587004,0.1370974959516895,-0.03462871859448627,-0.019461316901304888,0.06975534703724771,-0.10906131887307265,-0.059230557624609645,0.07684323436643009,0.045224452256014076,-0.0327191145090212,0.018775894348196084,-0.2764565149459164,-0.021541253116121165,0.25984372004994777,0.043353461617847505,-0.14417474452725304,0.17536558056911325,-0.009133094343651704,0.033352907104644135,0.0014926984800895104,0.048088875616531364,-0.013468886928694674,0.2644021831566476,-0.11297917383296731,-0.08195969442469668,0.026678852289603053,-0.028876079689744386,-0.04856340459120606,0.015195053380946143,-0.15919646244690427,-0.0318677400084435,0.14120589918770732,0.012449492622002607,-0.03117233544042847,0.7977563925780551,-0.3334963673818727,0.0,0.0,0.0,-0.023244834564683715,0.8689380920242546,-0.4776100666017127,0.0,0.0,0.0,0.2881195091195196,0.6641829206281149,-0.4598523104689202,0.0,0.0,0.0,0.011167106453122857,0.3458918753160022,-0.10255461508910796,0.0,0.0,0.0,0.010511878066983784,0.5169934533043311,-0.6072208978700625,-0.28429154812827223,0.2544145098614131,-0.044622319343035496,-0.010486130029859568,0.33370699917035085,-0.20773367555169708,-0.1575749102420598,0.03634020840988329,-0.030914387458660025
76,00617_hr,-0.08176975460390472,0.5464845830744175,-0.03219740173971986,-0.01343830321000269,0.034667708754809706,0.10918990433280024,-0.0945614573418232,0.3427235405233643,-0.10271047192921522,-0.024547882912293192,0.10394439330715442,0.17101438955022097,-0.022036365302439378,-0.0014075440239705653,-0.28889247631465614,-0.016184215535732606,0.2524646873889009,0.06654066950829395,-0.2962101395903952,0.06443834278955572,-0.24045365042818753,0.0,0.0,0.04517468096896822,-0.054295456213374504,0.39379365669215777,-0.02153529215938878,-0.0027271278924026247,0.023217296242118414,0.014802792288267882,-0.05642756482459054,0.09930586577591648,-0.1431721236112302,-0.0169068925926918,0.13865316355326165,0.10950766885040394,0.01695622705524707,0.05817703022941766,-1.0193836018494025,0.0,0.0,0.11633857867963932,-0.08618599401000417,-0.05748662286658113,-1.3138223168698169,-0.03048289921241257,1.235041693539654,0.4688777397248049,-0.07090345165763269,0.2952430043838085,-0.33702477957167387,0.010215346119118394,0.3239629601347142,0.2667123320216811,-0.11388448256753904,0.5069087983225377,-0.19575217619401994,-0.04923800280794203,0.13812428338940494,0.18107241133171878,-0.10012484869755761,0.5745392090623562,-0.08887255551881283,-0.029838586990089205,0.0828770564685115,0.15728884930118056,-0.08641755640059735,0.532463819264862,-0.055056866762470485,-0.023790197656647888,0.06622589323404245,0.13058757611217311
77,00872_hr,-0.028040466826620244,0.15616566268851675,-0.037971948371637816,-0.022680537510703345,0.004601824688382328,-0.005939467670457093,-0.022480891831974985,0.25873251574303086,-0.13747990445414024,-0.04983707618855299,0.09262735121672896,-0.0016680854116918357,-0.007943102315263725,0.10654925550862968,-0.1265403216054922,-0.05903699707578485,0.07487778570254189,-0.005597598340966078,-0.172496814500573,0.0665413309397878,-0.016681722670303014,0.005681290137869962,0.007743028545901531,0.03832094726975711,-0.007841204952340546,0.061948641121144433,-0.015110387432703683,-0.000397815970205587,0.0024752341808142357,0.013857015420561392,-0.013392923604540016,0.17864760552393844,-0.1315343485408292,-0.05324481427333635,0.07387939414147114,-0.0217858539054509,-0.03486887902374698,0.02073276714437692,-0.31960454359109247,-0.025994157429371854,0.2718807373412699,0.04308124900858442,-0.04615753139519427,0.13145101917635707,-0.8109214323544631,-0.05161089225682417,0.6725729742568987,0.30934873415775677,-0.08104366375034835,0.8426553380309568,-0.985263575548314,-0.10666718116123045,0.7343706153924832,0.3657657310859438,-0.10007028993526532,1.2874628920018678,-0.5622342973810026,-0.1107747230845247,0.3950874490331184,0.25827915527106593,-0.06286593693886157,0.7334090094174289,-0.18987745317214233,-0.07409084852950175,0.13470445804815087,0.13779472391423384,-0.028165874756738075,0.2842094608555778,-0.048465441358566876,-0.03188135184456815,0.022441422243216907,-0.009992618396670297
78,01564_hr,-0.05630278131555887,0.499939550830967,0.028596097943717425,-0.069898955952303,-0.13269324909723865,0.0581106492257635,-0.04059513451871267,0.487006865452962,-0.09737905565831717,-0.08629449857446336,0.0254777655931178,0.02273542815236832,-0.09455278336511531,0.0909839629019202,-0.23104155454000047,-0.046484665635152925,0.185480518757352,0.011974823727920586,0.0,0.0,0.0,0.0,0.0,0.0,-0.018414332996429816,0.3078751810815273,0.09061600431248605,0.00649026964813008,-0.2361144454180561,-0.00035999441016290384,-0.02498567170481092,0.26738341570142676,-0.08751439420561966,-0.047502956505977634,0.021502512633864705,-0.024388028523717267,0.0,0.0,0.0,0.0,0.0,0.0,0.0,0.0,0.0,0.0,0.0,0.0,0.0,0.0,0.0,0.0,0.0,0.0,-0.02697806320290816,0.030605238962702046,-3.0544582914303207,-0.22243654922285058,3.249553496061032,0.7755797459514119,-0.0673058186916636,0.3468601702474585,-1.7375504489566722,-0.0018459970208182133,1.7085186167596063,0.5524836701597324,1.360339715304564,1.5095314385552316,-0.398428476440507,-0.36890182754090495,0.06111703660470562,0.1101066557145088
79,01982_hr,-0.06804045162507229,1.1309340841807705,-0.2394439839860549,-0.1842412624947788,0.08257126979239399,-0.09881159355535062,-0.29738919179513035,0.03562843226566447,-0.3114773662136533,-0.021939123678984856,0.2774552848484223,0.18668897147067073,-1.277824449093869,0.1288730069106196,0.004752534279570828,0.0,0.0,0.3788607780545702,-0.017534661522667947,0.09780601627261454,-0.5494637831005736,-0.020661830822034676,0.528261726217076,0.10638365972937668,-0.04643080905669537,1.1806690210619604,-0.3017541232812848,-0.15739980885969365,0.2578575763578185,-0.0656198171141461,-0.31987653628697393,-0.25514674810118393,-0.5912802144513614,0.006173332289918833,0.7186410848973289,0.26726785435322487,-0.03394151038263799,0.15953964432879522,-0.6985572281970647,-0.002810063005646896,0.6300587641162099,0.09319148678860772,-0.06370132642627885,0.4282222721579556,-0.39833228214414274,-0.09656025785356885,0.32058911537915713,0.1661560249770491,-0.09890663067038827,0.45324124055125065,-0.27082761788752535,-0.12269643250843996,0.12927202325887083,0.19283011591413896,-0.1257134905963687,1.1005273084978326,-0.2425162265179016,-0.21019313392965852,0.0393413080525077,0.20183648379007332,-0.1464694009033926,1.5301067592385975,-0.25029611145637104,-0.23211010221731732,0.03822341207704005,0.137110867107406,-0.10366609155029913,1.608203044255267,-0.26317263089101084,-0.2488761517723394,0.026102196624057248,0.059071868876078196
80,02036_hr,-0.0942111364054739,0.3964962411974123,-0.051772257820043015,-0.01519267114774373,0.06736474532758772,0.08262583900198074,-0.11014794705449807,0.12929972674120913,-0.2732694142441679,-0.029260566402918985,0.21679047327021853,0.18891874961822483,-0.04519423937931238,-0.007532692062223004,-0.44509108291996163,-0.025266409527441105,0.34404602731373496,0.0905270416430571,-0.24335154426941452,0.12613768011950524,-0.1275690708468951,-0.04859743318245976,0.1306688592284016,0.03045167729928569,-0.0435636548420438,0.36160697978096096,-0.030565996603781915,-0.025333728543862278,0.006095810863498154,-0.005882092255073075,-0.07357964139948353,-0.005893712981269058,-0.32830976356538993,-0.015005174968956113,0.2630617613340889,0.14466917049477052,-0.027479116078754858,0.08060398700588818,-0.5342440621154683,-0.009292438091105592,0.4197382654294204,0.1385537899040426,-0.07517361243066767,0.11729173082479717,-0.5094412386396457,-0.01609727419132217,0.3988817626300097,0.2857831427709097,-0.09530675675864901,0.29466627364139436,-0.4634758199284354,-0.029418146373984298,0.35885312191019736,0.27474919115539304,-0.09172184202954915,0.2733462144804148,-0.4670816429064656,-0.03095605248943671,0.35438285574011963,0.2309998332968807,-0.08592870825021762,0.28783916942021376,-0.284958994706849,-0.02037012626878476,0.23355371452094006,0.18169685894895116,-0.06923170337118324,0.16753138146291402,-0.15149975165024468,-0.015388251850356287,0.13642539662520212,0.10698184060861426
81,02206_hr,-0.04796628644946893,0.6004918456775049,-0.08674672133109285,-0.06401579207353411,0.05490197158487768,-0.006327914566347049,-0.031444560532123085,0.2326741790213164,-0.12601786311833174,-0.032543513767245166,0.0790418145924328,0.031697849656271274,-0.09339744708647524,0.026275626429997888,-0.35728278577131495,-0.012475589176740806,0.31661563175754953,0.05728315960294402,-0.2706611500873271,0.05621824250789438,-0.1310172287459804,-0.008663195387388035,0.1436562956105682,0.043682302004734004,-0.03996103305621991,0.5009631145404543,-0.06767631982801887,-0.05420181620826486,0.031217641972884243,-0.0058837405304892985,-0.05106930371818174,0.009373576958956378,-0.1920102321134439,-0.009501486275530505,0.11966088234986175,0.03016495147285984,-0.01608431780736277,0.025123344386209504,-0.7631974389135214,-0.01974910508111545,0.6995855443681992,0.13147895380637498,-0.03970161697474391,-0.005713879444482379,-1.1638603274090102,-0.0828244134243998,1.1226205563040483,0.4948297549601233,-0.013978190126580857,0.6358474140957893,-0.7354251656007587,-0.12854500778853567,0.517660022123645,0.21013702665251566,-0.0027157399546758093,1.2199144647406697,-0.47803726082735437,-0.14523856832287563,0.24784276600375046,0.0008235053564374084,-0.026715690654634687,0.9105632221329115,-0.19708828848918566,-0.09473987369223494,0.08248156284096746,-0.05794676645658462,-0.02097534505410227,0.4307589100185004,-0.06515200186152194,-0.058669809484890145,0.013978235097014248,-0.01691233052256667
82,02398_hr,-0.06977599246778082,0.2704842314269303,-0.16517847156393065,-0.035869592553403766,0.14709049872809263,0.2128917234105251,-0.0807413579599662,0.6258210828725362,-0.07345516045772793,-0.03956513018664176,0.09144752502468159,0.24953471914752268,-0.07779115615776874,0.4323567530367541,-0.027754714235107347,-0.01583505132917248,0.035615322166592515,0.01012982798200463,-0.4370092552394283,0.10321205203038318,-0.23044110067788406,-0.1307378026613383,0.11437267695695841,0.05014806633313161,-0.04398982675506131,0.029107979286481064,-0.21439533889833698,-0.030541441394527975,0.15792625653410988,0.05513298776712954,-0.06472471959099205,0.5162363106073561,-0.041286196194856,-0.020920372971586877,0.04577389706861512,0.1453134685922538,0.0068936785061491385,0.11816205240271928,-0.7999338666649657,-0.08301960158174498,0.6871626337575989,0.058440102538695096,-0.012001879417368615,0.15305457170251732,-1.4388234046238835,-0.040416776946651765,1.2387099855818462,0.21461147183733623,-0.05567874803294211,0.14355409950028244,-0.8413641450420949,-0.0026166699721390076,0.8047752857664138,0.28356458070233964,-0.07238141922609471,0.3287288798773172,-0.21901626943070496,-0.030530758762651433,0.18874374365145044,0.2343717463049094,-0.08132337785174779,0.6393128712804234,-0.1010440402492736,-0.04787052250580017,0.0982362959228125,0.24056949255466858,-0.07478952793361739,0.6766689412943467,-0.0890518856741496,-0.054767901631680625,0.09447801110825191,0.21833119461430855
